actor/alpha_mean,actor/alpha_mean_loss,actor/alpha_std,actor/alpha_std_loss,actor/kl_mean_loss,actor/kl_std_loss,actor/penalty_temperature,actor/policy_mean_loss,actor/policy_std_loss,actor/temperature,actor/temperature_loss,critic/loss,critic/q,test/action/max,test/action/mean,test/action/min,test/action/size,test/action/std,test/effort/max,test/effort/mean,test/effort/min,test/effort/size,test/effort/std,test/episode_length/max,test/episode_length/mean,test/episode_length/min,test/episode_length/size,test/episode_length/std,test/episode_score/max,test/episode_score/mean,test/episode_score/min,test/episode_score/size,test/episode_score/std,test/rwd_metrics/act_mag/max,test/rwd_metrics/act_mag/mean,test/rwd_metrics/act_mag/min,test/rwd_metrics/act_mag/size,test/rwd_metrics/act_mag/std,test/rwd_metrics/cyclic_hip/max,test/rwd_metrics/cyclic_hip/mean,test/rwd_metrics/cyclic_hip/min,test/rwd_metrics/cyclic_hip/size,test/rwd_metrics/cyclic_hip/std,test/rwd_metrics/dense/max,test/rwd_metrics/dense/mean,test/rwd_metrics/dense/min,test/rwd_metrics/dense/size,test/rwd_metrics/dense/std,test/rwd_metrics/done/max,test/rwd_metrics/done/mean,test/rwd_metrics/done/min,test/rwd_metrics/done/size,test/rwd_metrics/done/std,test/rwd_metrics/joint_angle_rew/max,test/rwd_metrics/joint_angle_rew/mean,test/rwd_metrics/joint_angle_rew/min,test/rwd_metrics/joint_angle_rew/size,test/rwd_metrics/joint_angle_rew/std,test/rwd_metrics/ref_rot/max,test/rwd_metrics/ref_rot/mean,test/rwd_metrics/ref_rot/min,test/rwd_metrics/ref_rot/size,test/rwd_metrics/ref_rot/std,test/rwd_metrics/solved/max,test/rwd_metrics/solved/mean,test/rwd_metrics/solved/min,test/rwd_metrics/solved/size,test/rwd_metrics/solved/std,test/rwd_metrics/sparse/max,test/rwd_metrics/sparse/mean,test/rwd_metrics/sparse/min,test/rwd_metrics/sparse/size,test/rwd_metrics/sparse/std,test/rwd_metrics/vel_reward/max,test/rwd_metrics/vel_reward/mean,test/rwd_metrics/vel_reward/min,test/rwd_metrics/vel_reward/size,test/rwd_metrics/vel_reward/std,test/terminated/max,test/terminated/mean,test/terminated/min,test/terminated/size,test/terminated/std,train/action/max,train/action/mean,train/action/min,train/action/size,train/action/std,train/episode_length/max,train/episode_length/mean,train/episode_length/min,train/episode_length/size,train/episode_length/std,train/episode_score/max,train/episode_score/mean,train/episode_score/min,train/episode_score/size,train/episode_score/std,train/episodes,train/epoch_seconds,train/epoch_steps,train/epochs,train/seconds,train/steps,train/steps_per_second,train/worker_steps
None,None,None,None,None,None,None,None,None,None,None,None,None,0.9999739,-0.08365925,-0.99999905,111,0.67678225,0.1881156324589925,0.17048513449686598,0.14453090001823463,10,0.011963586885682472,16,11.1,7,10,2.3853720883753127,-122.65729048848152,-169.25600936561824,-224.25381743907928,10,28.142404704327284,0.0,0.0,0.0,10,0.0,-92.90552037965598,-175.22668277651505,-275.0983094067618,10,49.744930935745955,0.0,0.0,0.0,10,0.0,-100,-100.0,-100,10,0.0,22.72413253918125,15.35629054452652,9.063963426721772,10,3.90055019499426,7.729952832252632,5.849419007905422,3.606092608782025,10,1.0137770712636043,0.0,0.0,0.0,10,0.0,0.0,0.0,0.0,10,0.0,122.18431922817899,84.76496291226735,53.45431258214295,10,18.216016871640083,0.14285714285714285,0.09445568320568319,0.0625,10,0.02117677539220024,1.0,-0.04941285,-1.0,4082,0.9944066,23,4.268319241609019,1,46836,2.3934151492690896,-61.64725041389465,-127.86860436688154,-83861.2962474823,46836,393.9662680974456,46836.0,144.73396587371826,200018.0,1.0,144.73396587371826,200018.0,1381.9700081632363,4082.0
1.2242962,-9535.162,12.179791,-0.2697825,9535.258,0.27073255,4.5734897,11281.864,120.97939,5.1960807,-102.20098,79224.49,-110.96301,1.0,0.0603171,-1.0,49,0.5745532,0.2051600400081183,0.09740412237871623,0.008795581774219097,10,0.0649798685897425,12,4.9,2,10,3.448187929913334,-96.3711553812027,-100.10079035162926,-110.18898472934961,10,4.077903126199959,0.0,0.0,0.0,10,0.0,-20.88192071187775,-50.763425532762824,-127.02344226209917,10,36.19511307435184,0.0,0.0,0.0,10,0.0,-100,-100.0,-100,10,0.0,16.874704965612462,7.375175175492606,2.696935548581262,10,5.216487232004183,8.31947867365709,5.868238617616938,3.8391550819110396,10,1.0814669714917713,0.0,0.0,0.0,10,0.0,0.0,0.0,0.0,10,0.0,91.64027681259286,37.41922074550874,15.272787908360108,10,26.332845488940485,0.5,0.2972222222222222,0.08333333333333333,10,0.1427518350836622,6.0956116,0.01870304,-6.077864,4082,0.98337364,28,6.034612831190778,1,33138,3.378747750209486,-60.81844541430473,-116.60457586523569,-49489.270527750254,33138,271.71765651731425,79974.0,258.3344385623932,200018.0,2.0,403.06840443611145,400036.0,774.2599132855895,8164.0
1.2369045,-6.3555098,15.06457,-0.087626085,6.451988,0.088801116,10.340995,122.820984,120.00039,6.4101887,-104.64144,32433.902,-109.396034,1.0,0.100628555,-1.0,77,0.63131565,0.22159473610744787,0.2044932037617515,0.18075431643709908,10,0.01285913678146081,11,7.7,5,10,2.5709920264364885,-75.54809609055519,-86.7970396451652,-106.78417843580246,10,8.387393888990779,0.0,0.0,0.0,10,0.0,-35.850024044083845,-64.72409052192077,-115.46535129143743,10,28.45205629379211,0.0,0.0,0.0,10,0.0,-100,-100.0,-100,10,0.0,17.197630553664126,11.550051812924199,6.829521733844932,10,3.968200568624751,10.28651908582254,7.5778876386335465,5.899447219918465,10,1.3302527937457806,0.0,0.0,0.0,10,0.0,0.0,0.0,0.0,10,0.0,83.99883319286599,58.799110067482424,38.181443969380524,10,19.632321259663247,0.2,0.14595959595959598,0.09090909090909091,10,0.04859047837084254,5.9381866,0.086002655,-5.3455067,4082,0.95968455,21,4.5849584087628035,1,43639,2.7301832472756766,-45.76392042636871,-100.72611846418002,-580.1125462055206,43639,9.866719263899999,123613.0,226.08584809303284,200018.0,3.0,629.1542525291443,600054.0,884.6993373848588,12246.0
1.4126921,-6.4048853,18.799997,-0.2033875,6.5150747,0.20485389,14.048103,124.36152,120.28985,6.450603,-100.41876,46143.688,-106.26923,1.0,0.12508516,-1.0,25,0.640836,0.15100235536105042,0.11947118328461134,0.0901156863048424,10,0.026872408251366522,3,2.5,2,10,0.5,-88.43117582798004,-91.94953711032868,-94.9690123796463,10,2.8614022280266327,0.0,0.0,0.0,10,0.0,-15.761376049372188,-18.18314338493224,-21.99291489366789,10,2.321083998694916,0.0,0.0,0.0,10,0.0,-100,-100.0,-100,10,0.0,4.686201307581029,3.9116033404239197,3.098110371799743,10,0.6969634121039457,4.17079539838169,3.230807481033389,2.3582948607144436,10,0.5766281514866632,0.0,0.0,0.0,10,0.0,0.0,0.0,0.0,10,0.0,22.90949693944694,19.09119559820963,15.272913452760202,10,3.818204671381059,0.5,0.4166666666666667,0.3333333333333333,10,0.08333333333333334,5.715584,0.102010876,-5.685518,4082,0.98421687,18,4.085907493666748,1,48948,2.3041658651256425,-47.80919849872589,-94.47460948577894,-10375.912471652031,48948,49.62160374377816,172561.0,234.22316122055054,200018.0,4.0,863.3774137496948,800072.0,853.9633696244836,16328.0
1.7284598,-11.016558,23.496601,-0.22515701,11.15138,0.22698975,14.433657,129.81871,120.69651,6.261271,-98.41601,21473.95,-102.53387,1.0,0.11021399,-1.0,23,0.65573347,0.15774999146663762,0.11243506509446881,0.08719827242228638,10,0.026190818583335405,3,2.3,2,10,0.45825756949558405,-89.81607222557068,-94.51424226462841,-96.76784750819206,10,2.504486158669251,0.0,0.0,0.0,10,0.0,-15.816275223101911,-17.64051907583447,-21.478221093466463,10,2.069792863717124,0.0,0.0,0.0,10,0.0,-100,-100.0,-100,10,0.0,5.146371486135444,3.8153342235967243,3.098538278944467,10,0.813612842552144,2.2382303721349097,1.747115340430082,1.4893113057057357,10,0.20900054301103121,0.0,0.0,0.0,10,0.0,0.0,0.0,0.0,10,0.0,22.909208643531244,17.56382775224486,15.272902127890767,10,3.499341231723861,0.5,0.45,0.3333333333333333,10,0.07637626158259735,5.684417,0.10240363,-5.589296,4082,1.0101004,20,4.128281869220608,1,48448,2.2214527637517136,-34.92310929298401,-91.33761146230225,-310.59148655831814,48448,7.839229865290108,221009.0,252.9838044643402,200018.0,5.0,1116.361218214035,1000090.0,790.6355919641247,20410.0
1.7980759,-5.508501,27.44991,-0.25202298,5.648751,0.2541641,14.489041,123.048035,120.48554,5.439496,-95.85239,8600.155,-98.16373,1.0,0.10964171,-1.0,28,0.70315903,0.1696242510553417,0.150204870442805,0.10650169491533601,10,0.019300283321057553,3,2.8,2,10,0.39999999999999997,-87.65516448020935,-90.96198354363442,-97.05893787741661,10,3.058011944712485,0.0,0.0,0.0,10,0.0,-16.155490078604977,-18.690961268574277,-20.277409077315664,10,1.4043335225280802,0.0,0.0,0.0,10,0.0,-100,-100.0,-100,10,0.0,5.970849840392239,5.339101914047733,3.23508301693636,10,0.9986105444514265,1.172460089073101,1.0077675339452141,0.8994688329582264,10,0.08372504570254814,0.0,0.0,0.0,10,0.0,0.0,0.0,0.0,10,0.0,22.909494565222552,21.382107619485822,15.272985527210313,10,3.0545508888261836,0.5,0.36666666666666664,0.3333333333333333,10,0.06666666666666668,5.79942,0.09202936,-5.704664,4082,1.0225555,21,4.279022011166014,1,46749,2.153435629177951,-16.273509860038757,-88.5746604745691,-162.56156706809998,46749,8.458138078300417,267758.0,254.09336066246033,200018.0,6.0,1370.4545788764954,1200108.0,787.1831026144187,24492.0
1.8372546,-9.600071,31.986908,-0.3749422,9.743377,0.37743714,14.57883,125.20265,120.427246,4.5932045,-92.23818,3856.3237,-93.11444,1.0,0.059245322,-1.0,62,0.7116024,0.2349102978296753,0.22276753185013815,0.20159091278101418,10,0.009052518644966454,7,6.2,5,10,0.6,-64.10222151130438,-71.42480136603118,-79.11715429276228,10,4.547317082670729,0.0,0.0,0.0,10,0.0,-27.5225592433908,-30.983684520896684,-32.58854360322635,10,1.2993813877075566,0.0,0.0,0.0,10,0.0,-100,-100.0,-100,10,0.0,12.01925601692766,10.745580784813038,8.894608806569119,10,0.9997204671692728,1.7920529405171166,1.4666744750259562,1.26118485389855,10,0.178162882611951,0.0,0.0,0.0,10,0.0,0.0,0.0,0.0,10,0.0,53.45600649647399,47.346628213920795,38.18260383945248,10,4.5819682535860755,0.2,0.16285714285714287,0.14285714285714285,10,0.016329931618554526,5.960347,0.07006337,-6.198876,4082,1.0398871,20,4.7363946383744615,1,42226,2.0731359097630864,1.1338024139404297,-85.46448444412123,-142.85441994667053,42226,9.060929423883419,309984.0,246.9503870010376,200018.0,7.0,1617.404965877533,1400126.0,809.9521625740947,28574.0
1.8468161,-87.44462,35.878067,-0.23801985,87.58867,0.24081834,14.692516,173.38737,120.3023,4.1182866,-89.32246,279.54614,-89.52867,1.0,0.075536214,-1.0,50,0.75469106,0.2434976985428705,0.24058720671271158,0.2371700243466477,10,0.0020578720521758354,5,5.0,5,10,0.0,-78.70277577638626,-79.93156040757894,-81.85709019005299,10,0.8576507771576914,0.0,0.0,0.0,10,0.0,-25.88310909596138,-27.448562796505353,-29.59795960211623,10,0.9755994908058763,0.0,0.0,0.0,10,0.0,-100,-100.0,-100,10,0.0,8.203515475273882,7.976163294923536,7.726271231117208,10,0.14406889352859814,1.561996710367967,1.358190629315889,1.2690428602688468,10,0.09609434634236917,0.0,0.0,0.0,10,0.0,0.0,0.0,0.0,10,0.0,38.18284453682014,38.18264774043071,38.18255485777734,10,8.536686639189067e-05,0.2,0.2,0.2,10,0.0,5.7674174,0.052919142,-5.809435,4082,1.0521016,22,5.415455013131887,1,36933,1.993105778316186,-35.2120600938797,-82.62325493545531,-155.74158990383148,36933,9.207840961566186,346917.0,249.96182084083557,200018.0,8.0,1867.3667867183685,1600144.0,800.1942029673502,32656.0
1.7501768,-121.61496,40.382782,-0.35234332,121.75149,0.35549316,14.796184,190.72397,119.903496,4.168808,-86.92403,230.36235,-86.95774,1.0,0.025345793,-1.0,75,0.73532,0.24259863188284003,0.23771634044482554,0.22767365745593868,10,0.005743474642764166,9,7.5,6,10,1.02469507659596,-64.46346551179886,-68.38919830322266,-75.14479923248291,10,4.2442505098873875,0.0,0.0,0.0,10,0.0,-31.043772567974738,-38.94964348993783,-49.019567997554084,10,5.407451786013264,0.0,0.0,0.0,10,0.0,-100,-100.0,-100,10,0.0,13.84277547624642,11.682245382658559,9.235709388978435,10,1.5336140551723145,1.9720847752250172,1.6040163025521863,1.2964626267943204,10,0.21137281927437832,0.0,0.0,0.0,10,0.0,0.0,0.0,0.0,10,0.0,68.72906983142109,57.27418444206061,45.819367657785804,10,7.8251098009712665,0.16666666666666666,0.13611111111111113,0.1111111111111111,10,0.020412414523193145,5.9351635,0.04029374,-5.6248336,4082,1.0563886,21,5.996492595479345,1,33358,2.0107227219759256,-23.15317130088806,-79.80456113903796,-165.70020866394043,33358,9.696356823464495,380275.0,237.53666758537292,200018.0,9.0,2104.9034543037415,1800162.0,842.0510485106963,36738.0
1.8168447,-3.6836693,45.495888,-0.24628659,3.8253837,0.24983528,14.892864,119.74929,118.53908,3.8844798,-85.079636,52.79172,-84.75046,1.0,0.02356193,-1.0,61,0.72476774,0.23366123949935538,0.23139061012521922,0.22494149037438954,10,0.002360216301666643,7,6.1,6,10,0.3,-69.15368211269379,-74.80408571362496,-76.48235422372818,10,2.0039011552803148,0.0,0.0,0.0,10,0.0,-31.70360105625069,-33.34198247840524,-36.061356869498546,10,1.232396215417739,0.0,0.0,0.0,10,0.0,-100,-100.0,-100,10,0.0,12.151452463346525,10.625791305988425,10.151121020459444,10,0.5578884322463782,1.696929384667869,1.3290151256724638,1.1271870829114181,10,0.17531067561080832,0.0,0.0,0.0,10,0.0,0.0,0.0,0.0,10,0.0,53.45584294505946,46.58308900369216,45.819386301386764,10,2.2909179807161335,0.16666666666666666,0.16428571428571428,0.14285714285714285,10,0.007142857142857143,5.76498,0.035602365,-6.187509,4082,1.0600787,28,6.578237557975067,1,30401,2.1166141183707814,1.9350901246070862,-77.41408999614433,-184.3854035139084,30401,10.009359826121033,410676.0,210.84261679649353,200018.0,10.0,2315.746071100235,2000180.0,948.660204654254,40820.0
1.745822,-1.8084024,50.066486,-0.20247868,1.9445765,0.20638388,14.989468,118.64822,118.33447,3.7930083,-83.06876,50.93473,-82.59975,1.0,0.03664068,-1.0,60,0.7785757,0.2678639878346673,0.2665889460633596,0.26457634158882715,10,0.0008880195242242968,6,6.0,6,10,0.0,-74.4238315820694,-75.26753087639808,-76.2492173910141,10,0.5517054912860528,0.0,0.0,0.0,10,0.0,-31.403250690541313,-32.19836505660834,-33.210377968318625,10,0.635315245916588,0.0,0.0,0.0,10,0.0,-100,-100.0,-100,10,0.0,9.971646969960663,9.649372129264556,9.460992648895381,10,0.15054927164148957,1.87333603803537,1.4619010297969186,1.0342429034149845,10,0.2152982467867902,0.0,0.0,0.0,10,0.0,0.0,0.0,0.0,10,0.0,45.819793658608425,45.81955963756716,45.81936445379147,10,0.00011310369830758155,0.16666666666666666,0.16666666666666669,0.16666666666666666,10,2.7755575615628914e-17,5.75368,0.028417477,-6.0509295,4082,1.062374,31,7.089700407729126,1,28205,2.2352120586065416,8.683411955833435,-74.63611992593923,-156.43874666839838,28205,9.925088447054192,438881.0,211.58583664894104,200018.0,11.0,2527.331907749176,2200198.0,945.3279253840882,44902.0
1.6454042,-1.4568429,55.315075,-0.21042304,1.5851845,0.21473762,15.068717,118.01817,117.718506,3.7050872,-81.45519,47.782143,-80.755585,1.0,0.024787707,-1.0,67,0.7945846,0.2790225993102872,0.27499718669723017,0.2731521018429935,10,0.002201165114479831,7,6.7,6,10,0.45825756949558405,-62.62227785587311,-66.91859393119812,-72.99050623178482,10,3.918551271196585,0.0,0.0,0.0,10,0.0,-29.035222823741538,-30.908738384008217,-32.05512634644491,10,0.7713269497589392,0.0,0.0,0.0,10,0.0,-100,-100.0,-100,10,0.0,11.903668917690162,11.404888198800844,10.654816694574835,10,0.43210071443509507,1.8267977489519267,1.4203042271063193,1.1426458831237933,10,0.18591361277048093,0.0,0.0,0.0,10,0.0,0.0,0.0,0.0,10,0.0,53.45605593456917,51.16495125451626,45.81905701109015,10,3.4996352538275897,0.16666666666666666,0.15,0.14285714285714285,10,0.010910894511799617,6.1798315,0.022756437,-5.6494384,4082,1.0685102,39,7.500487512187805,1,26666,2.342099623864026,4.378617823123932,-72.80102788651979,-131.52456338703632,26666,9.982350589168632,465547.0,205.1980607509613,200018.0,12.0,2732.5299685001373,2400216.0,974.7558006542367,48984.0
1.620159,-1.8768778,60.644283,-0.28877538,2.0032501,0.29350564,15.126562,117.27635,116.96932,3.5927086,-80.38249,44.421616,-79.25354,1.0,0.036035594,-1.0,70,0.7917767,0.2883330973145649,0.2804644973552791,0.2668111173185653,10,0.005625913298424131,7,7.0,7,10,0.0,-68.40062326192856,-69.12939864993095,-70.11068695783615,10,0.5306773185897317,0.0,0.0,0.0,10,0.0,-34.26995413154469,-35.087432169382964,-36.40196946296377,10,0.6644661389088693,0.0,0.0,0.0,10,0.0,-100,-100.0,-100,10,0.0,11.622326680494616,11.01689216143952,10.700276578592646,10,0.2679508100350616,1.6336506478545911,1.4851876572872023,1.2568453003103301,10,0.11010965061833226,0.0,0.0,0.0,10,0.0,0.0,0.0,0.0,10,0.0,53.45609077779133,53.45595392212762,53.455689588543045,10,0.00013130759499767214,0.14285714285714285,0.14285714285714285,0.14285714285714285,10,0.0,5.9254265,0.02112597,-5.889295,4082,1.0750225,35,7.871241932945066,1,25412,2.455464354165464,16.846359610557556,-71.2806246975392,-129.81710686162114,25412,10.395195859498093,490959.0,204.21484541893005,200018.0,13.0,2936.7448139190674,2600234.0,979.4488720429674,53066.0
1.6029036,-1.3664885,65.3951,-0.26858523,1.4915149,0.27368605,15.151259,117.08935,116.878,3.6176775,-79.540184,42.69163,-78.03788,1.0,0.054498482,-1.0,70,0.812748,0.2962012973506933,0.2922939290750875,0.29025828665025355,10,0.0015833120074115038,7,7.0,7,10,0.0,-67.54514074325562,-68.80001964569092,-70.72226476669312,10,1.0744415727346026,0.0,0.0,0.0,10,0.0,-33.13146506689871,-34.581414274530246,-36.48144192640718,10,1.1497625024385416,0.0,0.0,0.0,10,0.0,-100,-100.0,-100,10,0.0,11.477953848088148,11.020802230973654,10.762920202936893,10,0.21356708592736554,1.4600733881973353,1.3048263485890728,0.9760190287130465,10,0.13367514586056703,0.0,0.0,0.0,10,0.0,0.0,0.0,0.0,10,0.0,53.4558272476285,53.45576661650814,53.45570129336226,10,3.805285792527445e-05,0.14285714285714285,0.14285714285714285,0.14285714285714285,10,0.0,5.935667,0.021605719,-5.7106385,4082,1.0843492,31,8.174076495586792,1,24472,2.58442314198401,36.84142544865608,-70.11358143478377,-141.86060661822557,24472,11.58299714795036,515431.0,203.99610114097595,200018.0,14.0,3140.7409150600433,2800252.0,980.4991315092498,57148.0
1.5942388,-1.1580341,70.22277,-0.2516783,1.2823846,0.2571557,15.164195,117.16082,116.99618,3.7071996,-78.860344,43.10641,-77.04936,1.0,0.06001109,-1.0,69,0.82554615,0.3011134725451963,0.2979414928576182,0.2963031127503671,10,0.0012644632425210848,7,6.9,6,10,0.3,-65.77714407444,-67.0353830575943,-73.93018347024918,10,2.3150703999543265,0.0,0.0,0.0,10,0.0,-31.158727718259513,-32.45227225194709,-33.27233260023142,10,0.6067559978230398,0.0,0.0,0.0,10,0.0,-100,-100.0,-100,10,0.0,11.714626211617967,11.359607388652693,10.127389383086154,10,0.43958242301111156,1.5129923118016824,1.3652871565532252,1.1512218794024314,10,0.12571085740477828,0.0,0.0,0.0,10,0.0,0.0,0.0,0.0,10,0.0,53.455747904638145,52.69199434835976,45.819005167871126,10,2.290996394109326,0.16666666666666666,0.14523809523809522,0.14285714285714285,10,0.007142857142857143,5.840554,0.02877687,-6.003807,4082,1.0923382,29,8.202682196612393,1,24383,2.6509185684639993,73.03871595859528,-68.9861995342527,-199.78170108795166,24383,12.328429963178602,539814.0,203.73486804962158,200018.0,15.0,3344.475783109665,3000270.0,981.7563479182351,61230.0
1.5262502,-1.0284684,75.24971,-0.2493622,1.1475159,0.25523165,15.17433,116.58257,116.4092,3.863198,-78.17723,44.82387,-76.17472,1.0,0.054219063,-1.0,60,0.8508778,0.3027282047358253,0.30235190829072844,0.3019593991876308,10,0.0002693187158729355,6,6.0,6,10,0.0,-70.57740259170532,-71.43485233783721,-72.36023914813995,10,0.5206425978712814,0.0,0.0,0.0,10,0.0,-27.108125251633172,-28.19329778437928,-29.45292488317598,10,0.7395837737165482,0.0,0.0,0.0,10,0.0,-100,-100.0,-100,10,0.0,10.020057234965732,9.637429685698024,9.406398719683306,10,0.17852371883142884,1.5502908473436232,1.3019284329009835,1.0984952818132039,10,0.142099759484196,0.0,0.0,0.0,10,0.0,0.0,0.0,0.0,10,0.0,45.81914647265624,45.819087549304655,45.819031602450025,10,3.227301811845514e-05,0.16666666666666666,0.16666666666666669,0.16666666666666666,10,2.7755575615628914e-17,5.697608,0.03969379,-5.7220244,4082,1.096985,32,8.212127432465719,1,24358,2.633300124207608,41.2328822016716,-67.60094989576497,-183.05560444295406,24358,12.337089168719492,564172.0,210.18455839157104,200018.0,16.0,3554.660341501236,3200288.0,951.6303268452724,65312.0
1.4483775,-0.74399406,79.98828,-0.20326427,0.85696757,0.20950337,15.183363,115.08425,114.97863,4.044683,-77.49128,47.134422,-75.39589,1.0,0.044435948,-1.0,60,0.8626872,0.3036663674423867,0.30316685677412153,0.3028441262816491,10,0.00022545872076635526,6,6.0,6,10,0.0,-70.87741577625275,-71.66302697658539,-72.19189417362213,10,0.4540862895484036,0.0,0.0,0.0,10,0.0,-27.680400271343775,-28.314039503405546,-29.23086799302321,10,0.5191126678863981,0.0,0.0,0.0,10,0.0,-100,-100.0,-100,10,0.0,9.743089641985547,9.427246547113327,9.190581564831927,10,0.18182614635798688,1.5180059216753368,1.4047179796345892,1.2089310201684258,10,0.12199608923511328,0.0,0.0,0.0,10,0.0,0.0,0.0,0.0,10,0.0,45.819121546877376,45.819048003021535,45.81897527616967,10,4.569420459489607e-05,0.16666666666666666,0.16666666666666669,0.16666666666666666,10,2.7755575615628914e-17,6.4516554,0.04933856,-6.201574,4082,1.1040868,36,8.212426084099869,1,24352,2.7505384124328045,55.370239078998566,-66.57915732370058,-164.49021953344345,24352,12.850186168497999,588524.0,213.4340980052948,200018.0,17.0,3768.0944395065308,3400306.0,937.1417307230732,69394.0
1.3861052,-0.5370978,85.13266,-0.20856139,0.645214,0.21520174,15.169576,113.81237,113.72554,4.3122864,-76.849,50.557186,-74.69162,1.0,0.046928734,-1.0,60,0.8631535,0.30356491839222993,0.30300305447080356,0.30254319516136224,10,0.00025498126235944145,6,6.0,6,10,0.0,-71.80402851104736,-72.64361489415168,-73.55270487070084,10,0.5308862106868443,0.0,0.0,0.0,10,0.0,-27.707928320186337,-29.16720109311355,-30.04240677629244,10,0.6456956904096928,0.0,0.0,0.0,10,0.0,-100,-100.0,-100,10,0.0,9.644700824157761,9.245287720545564,8.880861437597376,10,0.24031144315809794,1.7678137881246214,1.4593137875625566,1.2039674304702657,10,0.16824670255921265,0.0,0.0,0.0,10,0.0,0.0,0.0,0.0,10,0.0,45.819071721803795,45.81898521730945,45.81890745042648,10,5.229904556163369e-05,0.16666666666666666,0.16666666666666669,0.16666666666666666,10,2.7755575615628914e-17,5.8127003,0.05512081,-5.9226933,4082,1.1093956,36,8.296445310879754,1,24109,2.869428231085761,50.47055423259735,-66.27465883884511,-182.10508221387863,24109,13.769345330052998,612633.0,213.49653577804565,200018.0,18.0,3981.5909752845764,3600324.0,936.8676605035964,73476.0
1.339096,-0.49566033,90.01826,-0.20579162,0.6001098,0.21281302,15.141861,112.06435,111.98426,4.465426,-76.35764,53.3272,-74.11352,1.0,0.047499385,-1.0,60,0.8605967,0.300296287531162,0.2997504251423416,0.29920954609968886,10,0.000409301499659905,6,6.0,6,10,0.0,-72.35268533229828,-73.45814200639725,-74.76838266849518,10,0.6518394103727995,0.0,0.0,0.0,10,0.0,-28.493670348273284,-29.838700906362543,-31.22739582673727,10,0.7858989677865823,0.0,0.0,0.0,10,0.0,-100,-100.0,-100,10,0.0,9.499522119469685,9.256977839437042,9.007828657335633,10,0.15796660481511668,1.4849637461143144,1.3046393845061197,1.0800287387118013,10,0.13441101729788923,0.0,0.0,0.0,10,0.0,0.0,0.0,0.0,10,0.0,45.81901033880796,45.8189427174557,45.81889083129722,10,3.48137959300726e-05,0.16666666666666666,0.16666666666666669,0.16666666666666666,10,2.7755575615628914e-17,6.1862445,0.062264707,-5.886801,4082,1.1099129,31,8.52536231884058,1,23460,2.9031240296101117,41.91074597835541,-65.36068632537132,-144.29619032144547,23460,13.277194081094853,636093.0,217.6230936050415,200018.0,19.0,4199.214068889618,3800342.0,919.1028244594642,77558.0
1.2978399,-0.30218345,94.69941,-0.20077161,0.40341496,0.20815815,15.118812,109.88365,109.821754,4.5624404,-75.90721,54.2932,-73.60936,1.0,0.051571008,-1.0,60,0.8536826,0.29844282607130207,0.29705945159379776,0.2961422001657464,10,0.000660272326813468,6,6.0,6,10,0.0,-72.85438692569733,-73.67095758318901,-74.77699500322342,10,0.5806917893611666,0.0,0.0,0.0,10,0.0,-29.240926718516835,-30.129719319995367,-31.345965905660705,10,0.6529197307838079,0.0,0.0,0.0,10,0.0,-100,-100.0,-100,10,0.0,9.887303283915712,9.20713521289924,8.642911947003336,10,0.3096446082232952,1.8200148228035917,1.432714488124104,1.2255558121228187,10,0.1861632207156935,0.0,0.0,0.0,10,0.0,0.0,0.0,0.0,10,0.0,45.81895995603357,45.818911984416836,45.818876965590896,10,2.7486203384812268e-05,0.16666666666666666,0.16666666666666669,0.16666666666666666,10,2.7755575615628914e-17,5.918545,0.067655675,-5.854835,4082,1.1071842,37,8.643119464247137,1,23145,2.9257844407698594,48.10981857776642,-64.84487758636797,-162.7468020915985,23145,13.254631637191995,659238.0,213.1113727092743,200018.0,20.0,4412.325441598892,4000360.0,938.5608916933015,81640.0
1.2748933,-0.15287273,98.887085,-0.19338527,0.25231442,0.20109847,15.083838,108.21583,108.16826,4.6456714,-75.57261,54.45776,-73.26059,1.0,0.055204246,-1.0,65,0.843736,0.2992882019274405,0.29575387534822006,0.29219911361449585,10,0.0029685683676921736,7,6.5,6,10,0.5,-67.0212994813919,-71.25912559628486,-74.95499897003174,10,3.2583081292651817,0.0,0.0,0.0,10,0.0,-29.96408015837977,-32.14596276959288,-35.08955738613797,10,1.7523336661237054,0.0,0.0,0.0,10,0.0,-100,-100.0,-100,10,0.0,10.805438092776047,9.72553537138488,8.574646545355414,10,0.9087981159523243,1.8456322447451765,1.5241415415384774,1.3185446132866645,10,0.15190111555020955,0.0,0.0,0.0,10,0.0,0.0,0.0,0.0,10,0.0,53.45554775237121,49.63716118461893,45.81882857750652,10,3.818308288861935,0.16666666666666666,0.15476190476190477,0.14285714285714285,10,0.011904761904761904,5.747446,0.07469675,-6.0406833,4082,1.1026613,31,8.845354442135054,1,22613,2.913835085244144,56.376436948776245,-64.23265812355902,-193.8851420879364,22613,13.472343242502157,681851.0,207.66852807998657,200018.0,21.0,4619.993969678879,4200378.0,963.1599060737799,85722.0
1.2603666,-0.17410494,102.97744,-0.19274013,0.27241352,0.20077236,15.066077,107.43568,107.3858,4.7042427,-75.3031,55.197166,-73.01767,1.0,0.059108783,-1.0,64,0.8358255,0.2953105839592949,0.2912954562552269,0.2879532596066247,10,0.0032080846551145337,7,6.4,6,10,0.4898979485566356,-68.32982194423676,-72.61683834195136,-75.75414478778839,10,3.254649127195572,0.0,0.0,0.0,10,0.0,-30.67162420831061,-32.64338404469804,-34.289350670335836,10,1.3028213934969473,0.0,0.0,0.0,10,0.0,-100,-100.0,-100,10,0.0,10.774475761005974,9.748942074726106,8.528750187987608,10,0.8326547758826913,1.59349072089399,1.4041395092447817,1.2424218977689827,10,0.09290991969759836,0.0,0.0,0.0,10,0.0,0.0,0.0,0.0,10,0.0,53.45544433308893,48.87346366672896,45.818744696289095,10,3.7411504367378683,0.16666666666666666,0.15714285714285717,0.14285714285714285,10,0.011664236870396085,6.196374,0.081018165,-5.4265823,4082,1.100129,35,9.034289586627512,1,22135,2.8958502529944856,59.949217081069946,-63.703504788086605,-180.77135276794434,22135,13.754663282497393,703986.0,210.63586926460266,200018.0,22.0,4830.629838943481,4400396.0,949.5913525950112,89804.0
1.2339897,-0.10194143,107.35937,-0.1760055,0.19819261,0.18437955,15.05246,107.285194,107.241425,4.715272,-75.09905,55.514072,-72.82781,1.0,0.064055584,-1.0,65,0.8335743,0.2968572734788201,0.2926575952111369,0.2879936072676503,10,0.0031708543997200044,7,6.5,6,10,0.5,-65.43807768821716,-69.908263027668,-73.67311489582062,10,3.5511037973979533,0.0,0.0,0.0,10,0.0,-28.92073327147102,-31.489091845810936,-33.95864199725075,10,1.9280170194062478,0.0,0.0,0.0,10,0.0,-100,-100.0,-100,10,0.0,13.418653383282155,10.564103810237011,8.61159158842296,10,1.6725530245841451,1.7020163730604203,1.3795967356968863,1.111697784086247,10,0.16540435212801657,0.0,0.0,0.0,10,0.0,0.0,0.0,0.0,10,0.0,53.455502168062836,49.63712790035349,45.818702474243985,10,3.8183014978422376,0.16666666666666666,0.15476190476190474,0.14285714285714285,10,0.011904761904761904,6.279037,0.08846453,-6.045963,4082,1.100778,34,9.125701510243191,1,21917,3.116662842931598,76.0625911951065,-63.25769368718338,-158.38047942519188,21917,14.653050646820938,725903.0,209.86414504051208,200018.0,23.0,5040.4939839839935,4600414.0,953.0832432638201,93886.0
1.1192477,-0.055870388,111.87345,-0.18407919,0.14317171,0.19280532,15.055968,107.55165,107.515785,4.798775,-74.87269,57.37152,-72.581,1.0,0.07567269,-1.0,69,0.82282054,0.2952145374899496,0.29371469009221557,0.2883905306549868,10,0.001868264801892505,7,6.9,6,10,0.3,-63.29802370071411,-65.303633248806,-71.47092831134796,10,2.1255448637471095,0.0,0.0,0.0,10,0.0,-29.98450495351744,-32.83391408763359,-33.614257407315,10,1.0188028859063196,0.0,0.0,0.0,10,0.0,-100,-100.0,-100,10,0.0,14.458776160276598,13.412914776782156,11.364993340121849,10,0.7755796095627248,1.6685866474058253,1.425639265924154,1.3297819563452087,10,0.10478669985849386,0.0,0.0,0.0,10,0.0,0.0,0.0,0.0,10,0.0,53.4554588172285,52.69172696602588,45.818803839475464,10,2.2909743763565595,0.16666666666666666,0.14523809523809522,0.14285714285714285,10,0.007142857142857143,5.7796335,0.094793536,-6.101038,4082,1.1029295,37,9.310341617797636,1,21486,3.388237960694226,82.7750438451767,-62.50996306801784,-153.51376688480377,21486,15.830935307107666,747389.0,207.03443932533264,200018.0,24.0,5247.528423309326,4800432.0,966.1097962822164,97968.0
1.0807816,-0.07161882,116.10519,-0.17000288,0.15591978,0.1790591,15.074613,108.457695,108.422134,4.9885163,-74.36623,64.06954,-72.105606,1.0,0.12556344,-1.0,69,0.85213935,0.36374120663565296,0.34744709074541424,0.3393258960054288,10,0.00728843390764617,8,6.9,6,10,0.5385164807134504,-64.15578496456146,-69.98129297494889,-74.8131355047226,10,3.9066435324081334,0.0,0.0,0.0,10,0.0,-24.072256515469782,-31.431056959286973,-37.49316631478304,10,4.471283643246167,0.0,0.0,0.0,10,0.0,-100,-100.0,-100,10,0.0,9.848250190159128,7.66554874595662,5.9461557060117,10,1.0032776007455624,1.3738204060520016,1.0909654341472357,0.8793100633596356,10,0.13483987127594319,0.0,0.0,0.0,10,0.0,0.0,0.0,0.0,10,0.0,61.09352196198206,52.69324901360484,45.82039104803964,10,4.112390615828902,0.16666666666666666,0.14583333333333331,0.125,10,0.011679414803778916,5.5101204,0.10414232,-5.8194356,4082,1.1094952,46,9.829638731875153,1,20345,4.058914427291449,74.64911115169525,-61.206781950999556,-157.4204861521721,20345,18.927890032243926,767734.0,208.471125125885,200018.0,25.0,5455.999548435211,5000450.0,959.451817987836,102050.0
1.0753424,-0.053951774,120.70377,-0.16810153,0.1378285,0.17751642,15.115727,109.97702,109.94453,5.4175954,-73.44383,78.891075,-71.33052,1.0,0.09980318,-1.0,184,0.826378,0.3449770334265086,0.3420476848913844,0.338465112511932,10,0.0025626096627131916,26,18.4,8,10,7.045565981523415,-37.48084632307291,-51.50040035843849,-67.04662489891052,10,10.342951567337508,0.0,0.0,0.0,10,0.0,-35.51735139362812,-117.40377125769616,-190.3030426766593,10,56.60622640351886,0.0,0.0,0.0,10,0.0,-100,-100.0,-100,10,0.0,34.37763644958026,23.961756612000393,8.94352010237238,10,9.960161945951723,1.841335502743722,1.4308357565050145,0.8886689163494944,10,0.31464850073083356,0.0,0.0,0.0,10,0.0,0.0,0.0,0.0,10,0.0,198.5471665756117,140.51077785380147,61.09340200422021,10,53.80195973765298,0.125,0.068414694763665,0.038461538461538464,10,0.03722542094877903,5.8457103,0.11272569,-5.806536,4082,1.1173964,42,10.226096737907762,1,19558,4.66466352565718,74.73738089203835,-60.263774867342356,-172.06516605615616,19558,22.60435872829265,787292.0,208.84472036361694,200018.0,26.0,5664.844268798828,5200468.0,957.7354871684147,106132.0
1.0846065,-0.16470791,125.20027,-0.17628472,0.24930722,0.18605033,15.1548395,111.98181,111.94141,5.955913,-72.28442,97.30829,-70.348,1.0,0.10684629,-1.0,169,0.8310423,0.3506854362696769,0.34779499038907496,0.34672821096840356,10,0.0011451336152937142,19,16.9,15,10,1.2206555615733703,-31.283278822898865,-38.54578014053404,-44.02678778767586,10,3.5627695362572713,0.0,0.0,0.0,10,0.0,-66.96207464434062,-91.19027702654155,-112.17185757703838,10,12.606988340654384,0.0,0.0,0.0,10,0.0,-100,-100.0,-100,10,0.0,24.529242853164355,22.058188739573296,19.130777714288605,10,1.7367624488670061,1.844583876747731,1.5310965061853434,1.265601515201204,10,0.13968831096186615,0.0,0.0,0.0,10,0.0,0.0,0.0,0.0,10,0.0,145.0914254421007,129.05521199948407,114.54644403262095,10,9.321276554503546,0.06666666666666667,0.05948701410388717,0.05263157894736842,10,0.0043799940344831905,5.9565616,0.12190941,-6.2810845,4082,1.1217281,43,10.251665470943937,1,19514,4.798134047610968,83.54881370067596,-58.57787333410824,-150.96067571640015,19514,23.094445959784185,806806.0,210.39768314361572,200018.0,27.0,5875.241951942444,5400486.0,950.6663619649717,110214.0
1.0989153,-0.17003956,129.8319,-0.17658514,0.25575498,0.18671203,15.203852,114.04137,113.999756,6.4668365,-70.91629,116.003105,-69.0825,1.0,0.1346428,-1.0,89,0.8377663,0.3554231930061904,0.35208159266630057,0.3512324692917539,10,0.001197940399269984,9,8.9,8,10,0.3,-57.97856533527374,-59.03878818750381,-61.557982325553894,10,1.037550135723278,0.0,0.0,0.0,10,0.0,-32.842814018277025,-38.610169591834236,-40.77670118435354,10,2.0118876096136336,0.0,0.0,0.0,10,0.0,-100,-100.0,-100,10,0.0,10.983146727569007,10.528248844785297,9.207769359488937,10,0.4716325371992094,1.1522304843180597,1.0767810435091025,0.9834989634508418,10,0.05854925865848678,0.0,0.0,0.0,10,0.0,0.0,0.0,0.0,10,0.0,68.73006345208152,67.96635198709261,61.09356163291448,10,2.2909301187385447,0.125,0.1125,0.1111111111111111,10,0.004166666666666668,6.0347233,0.12558667,-6.1127143,4082,1.1230121,42,10.08997779572063,1,19816,4.79424535605183,90.76814901828766,-57.68927707727814,-154.37586212158203,19816,23.32485348722884,826622.0,215.00334763526917,200018.0,28.0,6090.245299577713,5600504.0,930.301793901878,114296.0
1.1187449,-0.21284312,134.29413,-0.17899366,0.30010524,0.1894686,15.241339,116.09639,116.05331,7.004469,-69.65604,132.8165,-67.84124,1.0,0.12462263,-1.0,107,0.83624846,0.35599857751080854,0.35207430753426433,0.34895383432498556,10,0.0018837483921092428,18,10.7,8,10,3.6619666847201113,-38.223898500204086,-55.21033459417522,-61.674097418785095,10,8.339765237194275,0.0,0.0,0.0,10,0.0,-32.68093847720505,-51.260056176969634,-102.51687185242393,10,25.141013962745667,0.0,0.0,0.0,10,0.0,-100,-100.0,-100,10,0.0,24.418424542841542,13.136577974394509,8.985258093100255,10,5.354448648875554,1.3558351123581402,1.2016466928719862,0.9281171381874035,10,0.13624193511499755,0.0,0.0,0.0,10,0.0,0.0,0.0,0.0,10,0.0,137.4565101218626,81.71149788800484,61.09346952181767,10,27.96355870132736,0.125,0.10138888888888889,0.05555555555555555,10,0.02328202029755585,6.6613765,0.12695591,-5.842956,4082,1.1228693,41,9.992657342657342,1,20020,4.737778960861993,77.36300563812256,-57.029819778703164,-190.55500835180283,20020,23.338998771203027,846642.0,214.25387287139893,200018.0,29.0,6304.499172449112,5800522.0,933.5560534770651,118378.0
1.1352335,-0.17778602,138.43771,-0.18346763,0.2663342,0.19426578,15.277714,117.78803,117.74741,7.4171886,-68.416336,146.64038,-66.61312,1.0,0.120605096,-1.0,171,0.8251158,0.3560418205475462,0.35306073606046967,0.34968428528195994,10,0.002033533046672275,19,17.1,12,10,2.071231517720798,-29.60679030418396,-35.017452185600995,-46.70910382270813,10,4.536215468160004,0.0,0.0,0.0,10,0.0,-54.22736031468973,-89.45100847520675,-108.74445782512136,10,16.773854793278236,0.0,0.0,0.0,10,0.0,-100,-100.0,-100,10,0.0,25.284035768210213,22.353263961098474,14.470892735975106,10,3.1951637607335326,1.7279314081018005,1.4974365101129874,1.2465770130530112,10,0.1307710578019033,0.0,0.0,0.0,10,0.0,0.0,0.0,0.0,10,0.0,145.0920905625578,130.58285652596533,91.63881813565888,10,15.816214345111156,0.08333333333333333,0.05954764361885103,0.05263157894736842,10,0.00890719896675871,5.9427314,0.12869142,-5.6000896,4082,1.1210884,43,10.349324639031206,1,19323,4.743168596023958,84.78122362494469,-55.191104698216165,-120.00568217039108,19323,23.799359154834864,865965.0,275.3352539539337,200018.0,30.0,6579.834426403046,6000540.0,726.4525596619203,122460.0
1.1519887,-0.2764112,142.83807,-0.18072957,0.3662663,0.19187093,15.286401,118.733826,118.68649,7.774189,-67.28625,154.31398,-65.58393,1.0,0.13039675,-1.0,191,0.8142677,0.3546967123610693,0.35337285332780927,0.3517836584538371,10,0.0009527159940794957,23,19.1,17,10,1.5132745950421556,-22.18896359205246,-29.85231478214264,-34.39856672286987,10,4.201424559321154,0.0,0.0,0.0,10,0.0,-88.22389729139311,-102.87400512615541,-130.464763152572,10,11.559251054714002,0.0,0.0,0.0,10,0.0,-100,-100.0,-100,10,0.0,30.728455995168133,25.574728931895088,22.336941174325837,10,2.116618675062328,1.9096996303692702,1.5913397979171526,1.3027794049900483,10,0.17395070307230867,0.0,0.0,0.0,10,0.0,0.0,0.0,0.0,10,0.0,175.63764349106202,145.855621047084,129.81898449226833,10,11.556117721594976,0.058823529411764705,0.052657079612928315,0.043478260869565216,10,0.0038228453501838134,6.141836,0.1296797,-5.8791323,4082,1.1185728,47,10.812996702167919,1,18497,5.087917942563324,77.10184168815613,-54.040661471175355,-178.57981741428375,18497,25.663178053912034,884462.0,300.57967257499695,200018.0,31.0,6880.414098978043,6200558.0,665.4408739170276,126542.0
1.1655918,-0.072663456,147.24532,-0.16282055,0.16357961,0.17430569,15.273879,118.952385,118.92058,8.074596,-66.10894,162.71434,-64.55923,1.0,0.12438428,-1.0,179,0.82117957,0.35508223047031656,0.3532491714488751,0.3509085313372221,10,0.0014271259541874786,20,17.9,16,10,1.5132745950421556,-12.631209969520569,-24.48947162926197,-32.31370535492897,10,5.692131718581648,0.0,0.0,0.0,10,0.0,-71.07929359498205,-85.85773366937448,-108.6147799103633,10,12.530474761037395,0.0,0.0,0.0,10,0.0,-100,-100.0,-100,10,0.0,26.38705620203999,22.425277125818663,17.953424554413843,10,2.9861742234211377,2.7132309899364166,2.249504388161665,1.554445474327354,10,0.31526551412405046,0.0,0.0,0.0,10,0.0,0.0,0.0,0.0,10,0.0,152.73116446793225,136.69347968179775,122.18373833248467,10,11.556161663374551,0.0625,0.05626977984176127,0.05,10,0.004786252074566397,5.8041434,0.13200854,-6.388973,4082,1.1162592,49,11.237402393123983,1,17801,5.304569786461515,70.19967126846313,-53.964041451205254,-164.40751695632935,17801,27.38715623338275,902263.0,303.7690706253052,200018.0,32.0,7184.183169603348,6400576.0,658.4541328986036,130624.0
1.1721636,-0.11753641,151.36569,-0.17610669,0.20896518,0.18791321,15.269207,118.849594,118.81483,8.2943735,-65.38347,173.16539,-63.857983,1.0,0.13096817,-1.0,193,0.81565017,0.3545167793232657,0.35352005574428397,0.3518136428141217,10,0.0008333443404467038,22,19.3,18,10,1.4177446878757827,-8.395766735076904,-22.32247266853228,-30.61708974838257,10,6.747262105957681,0.0,0.0,0.0,10,0.0,-83.85930953499911,-97.05987666784645,-119.71536464309135,10,11.875505452920509,0.0,0.0,0.0,10,0.0,-100,-100.0,-100,10,0.0,29.40799361515934,25.12820674795329,22.626697044104365,10,2.092361201811433,3.0404694530381304,2.2245292528224754,1.6316024732442571,10,0.3576058231632204,0.0,0.0,0.0,10,0.0,0.0,0.0,0.0,10,0.0,168.00254042295657,147.38466652346074,137.45625476156067,10,10.826696882727378,0.05555555555555555,0.05208095997569682,0.045454545454545456,10,0.0036459223070870943,6.529191,0.13532397,-5.8020935,4082,1.1158781,53,11.405339113570246,1,17531,5.354873590359342,85.2753654718399,-53.72725235775888,-151.03258251026273,17531,28.169747560644105,919794.0,303.12665247917175,200018.0,33.0,7487.3098220825195,6600594.0,659.8495987209291,134706.0
1.1787527,-0.07309658,155.56375,-0.15837692,0.16503929,0.1705109,15.24807,118.577896,118.5465,8.458478,-64.727905,182.97028,-63.146782,1.0,0.13666935,-1.0,186,0.807788,0.3550077963911898,0.3517975109118242,0.34898096002336937,10,0.0016904813300273143,23,18.6,14,10,2.973213749463701,-15.860254049301147,-22.281363678351045,-36.32639229297638,10,5.915181971434654,0.0,0.0,0.0,10,0.0,-62.21103481730162,-90.93691990247815,-131.65767988090957,10,24.42836432299105,0.0,0.0,0.0,10,0.0,-100,-100.0,-100,10,0.0,31.505085013093545,24.67677935092057,17.021597909457995,10,4.731572039867247,2.379061854429784,1.940543371145333,1.5821644221739106,10,0.20610104526088158,0.0,0.0,0.0,10,0.0,0.0,0.0,0.0,10,0.0,175.63893626765602,142.03823286292294,106.91097938376318,10,22.704374107685712,0.07142857142857142,0.05519308448016887,0.043478260869565216,10,0.009040548757943216,6.2720957,0.13662945,-6.2648973,4082,1.1136658,51,11.576684986982933,1,17285,5.497266283826865,98.10023033618927,-51.901787276799986,-130.06960022449493,17285,28.612944167889786,937079.0,305.3631567955017,200018.0,34.0,7792.672978878021,6800612.0,655.0168071976994,138788.0
1.1625942,-0.032252092,159.92937,-0.14565481,0.12293445,0.15812929,15.23212,118.3524,118.324936,8.729916,-63.644222,193.36246,-62.179256,1.0,0.14217556,-1.0,192,0.8017935,0.3526320507806769,0.3515960305345467,0.34902748295858144,10,0.0010846604239852008,25,19.2,12,10,3.0919249667480613,-16.58756458759308,-25.766142357885837,-42.82931011915207,10,6.764926514583959,0.0,0.0,0.0,10,0.0,-51.256274213935995,-100.52982328439694,-151.18297231383363,10,23.93317226469464,0.0,0.0,0.0,10,0.0,-100,-100.0,-100,10,0.0,36.45223545507724,26.488666392217038,15.26889397328189,10,4.99746458417873,1.7782344542913486,1.6558154255636985,1.4973996931794202,10,0.09323733554005335,0.0,0.0,0.0,10,0.0,0.0,0.0,0.0,10,0.0,190.91112057246556,146.61919855327133,91.63846256389337,10,23.61103653793108,0.08333333333333333,0.05376706472062509,0.04,10,0.010832832380345717,5.814032,0.13893394,-5.7537394,4082,1.1124239,45,11.46725541919945,1,17438,5.480798849584917,94.96882300078869,-49.9364642358001,-130.34511068463326,17438,28.788421208453546,954517.0,304.0632221698761,200018.0,35.0,8096.736201047897,7000630.0,657.8171426738766,142870.0
1.1422697,0.007592402,164.37434,-0.13814738,0.08150465,0.15096858,15.215487,118.36737,118.34321,8.9774275,-62.5586,202.28474,-61.2116,1.0,0.14656822,-1.0,174,0.80148625,0.3532023524410254,0.3514619514496457,0.35012949570246793,10,0.0009176548101805535,20,17.4,11,10,2.3748684174075834,-16.237200379371643,-25.651071035861968,-42.60855436325073,10,7.088201827686512,0.0,0.0,0.0,10,0.0,-41.66001833778149,-84.0802421486164,-98.88655193994231,10,15.656188235490452,0.0,0.0,0.0,10,0.0,-100,-100.0,-100,10,0.0,28.14281656760072,23.90453666460351,13.71625394182539,10,3.877403948887702,1.9039659097493336,1.6511428023195829,1.3328575632803057,10,0.14922249152304792,0.0,0.0,0.0,10,0.0,0.0,0.0,0.0,10,0.0,152.7274301835642,132.8734909311617,84.00235408353677,10,18.134818724858498,0.09090909090909091,0.058965350095381064,0.05,10,0.011103320231360722,6.1082153,0.1430121,-5.602555,4082,1.111013,58,11.179044425817267,1,17895,5.535964567905425,105.68010294437408,-49.469749737695054,-150.7377895116806,17895,29.171273723266665,972412.0,303.99538373947144,200018.0,36.0,8400.731584787369,7200648.0,657.9639385952597,146952.0
1.1135004,-0.02820451,168.89282,-0.14496097,0.11505754,0.15813461,15.203165,118.70044,118.67362,9.233248,-61.62352,208.09993,-60.35146,1.0,0.15202852,-1.0,130,0.8073513,0.35526789895551264,0.3515545209068083,0.3491400501889517,10,0.002302990238708011,20,13.0,9,10,4.171330722922842,-18.883615732192993,-40.79786408543587,-55.943237602710724,10,13.125959044568113,0.0,0.0,0.0,10,0.0,-32.73486151326126,-58.344511339883525,-104.3830470267939,10,25.45753224337468,0.0,0.0,0.0,10,0.0,-100,-100.0,-100,10,0.0,26.817173360100263,16.97422778707378,10.874415940182809,10,6.100189167288772,1.7383627563468345,1.2975939807192691,0.959685802582195,10,0.21440298975926778,0.0,0.0,0.0,10,0.0,0.0,0.0,0.0,10,0.0,152.72847103393443,99.27482619464425,68.72991585284254,10,31.853105184318864,0.1111111111111111,0.08484126984126984,0.05,10,0.025058384835054674,6.379879,0.14548202,-6.119083,4082,1.1096247,54,11.189415976728574,1,17876,5.4353985781377645,113.16835537552834,-48.69340407427846,-133.45905865728855,17876,29.060001247841782,990288.0,300.2141296863556,200018.0,37.0,8700.945714473724,7400666.0,666.2511195224753,151034.0
1.0660685,-0.045020215,173.48337,-0.14103472,0.12817356,0.1545664,15.180195,119.10853,119.08102,9.470519,-60.394165,213.25992,-59.19282,1.0,0.15490371,-1.0,151,0.7986197,0.35453791019674064,0.35104731691625696,0.34804842339908865,10,0.0021144479729406696,22,15.1,10,10,4.3,-10.223750352859497,-30.939869141578676,-46.14257502555847,10,12.690562035718294,0.0,0.0,0.0,10,0.0,-35.817513311804355,-67.68329030672824,-113.43641173546928,10,27.554358138833038,0.0,0.0,0.0,10,0.0,-100,-100.0,-100,10,0.0,31.56425081523056,20.022903496313184,11.88337493407166,10,6.942810357625752,1.692574199167903,1.409931163478016,1.1995341336833314,10,0.15126226032857232,0.0,0.0,0.0,10,0.0,0.0,0.0,0.0,10,0.0,168.00030565839083,115.31058717394512,76.36618962412798,10,32.83548327732508,0.1,0.0714781928597718,0.045454545454545456,10,0.01884732934529884,6.2265353,0.146205,-6.1425056,4082,1.1059248,50,11.860684419666686,1,16861,5.768571901615266,117.6569185256958,-45.26350010751135,-113.26142302341759,16861,31.821352281719903,1007149.0,303.120210647583,200018.0,38.0,9004.065925121307,7600684.0,659.8636216723509,155116.0
1.0055711,-0.05478088,177.57056,-0.1424273,0.13321543,0.1562778,15.166515,119.393555,119.36553,9.780128,-58.73996,221.87157,-57.71947,1.0,0.15123263,-1.0,169,0.79647124,0.35186099895824535,0.3496499387093051,0.34827438277128625,10,0.0012599713164950473,23,16.9,11,10,4.369210454990696,-4.357021689414978,-20.887703597545624,-41.9114785194397,10,14.595671488357707,0.0,0.0,0.0,10,0.0,-40.71992567559127,-74.40070591931753,-113.57447713417969,10,26.127108721686824,0.0,0.0,0.0,10,0.0,-100,-100.0,-100,10,0.0,31.743907147005867,22.69126562245006,13.395122861449256,10,6.578005739342002,2.1255716112481333,1.7661771067148746,1.365099469074017,10,0.21958697346249662,0.0,0.0,0.0,10,0.0,0.0,0.0,0.0,10,0.0,175.63643502128673,129.05555985304886,84.00221639623487,10,33.36393874486182,0.09090909090909091,0.0638435058457942,0.043478260869565216,10,0.01824471570111865,6.6652117,0.14706099,-5.5955515,4082,1.1034355,58,12.331196449485299,1,16223,6.003253147739782,115.0731793642044,-44.34072896843472,-150.17124819755554,16223,34.725100147770995,1023372.0,296.0854477882385,200018.0,39.0,9300.151372909546,7800702.0,675.5414745781551,159198.0
0.9390207,0.027649764,181.25446,-0.1226636,0.045593858,0.13680145,15.16211,119.65459,119.63333,10.131883,-57.38721,236.62767,-56.527706,1.0,0.15356144,-1.0,179,0.792922,0.35122256479724145,0.3487359555383315,0.3450392589372404,10,0.002105468366584914,23,17.9,13,10,3.144837038703278,3.2606945037841797,-14.566196328401565,-29.38684582710266,10,10.967583507793941,0.0,0.0,0.0,10,0.0,-47.94297139076801,-78.22401942100244,-109.26052352243997,10,18.622925674444463,0.0,0.0,0.0,10,0.0,-100,-100.0,-100,10,0.0,33.312477312534185,24.990326328976092,17.477375052077456,10,4.84826549853421,2.2803030055823883,1.975953121045584,1.7148063506451903,10,0.19086662533310975,0.0,0.0,0.0,10,0.0,0.0,0.0,0.0,10,0.0,175.6364135753638,136.6915426812625,99.27484786250363,10,24.014412510912788,0.07692307692307693,0.0577838199176872,0.043478260869565216,10,0.011069341695405834,6.071398,0.14928131,-6.225709,4082,1.1022128,48,12.565280221161096,1,15916,6.037242909713049,124.91365253925323,-44.12397229336818,-176.56117329001427,15916,36.1832638155085,1039288.0,288.4483664035797,200018.0,40.0,9588.599739313126,8000720.0,693.4273974016784,163280.0
0.78645957,0.025533162,184.98131,-0.11253565,0.035810694,0.12696418,15.151274,119.759384,119.73941,10.429043,-55.8979,252.35312,-55.134953,1.0,0.15191098,-1.0,184,0.7874724,0.3474720539005684,0.34363090042075495,0.33790205695375897,10,0.0028101204145456094,27,18.4,10,10,6.2801273872430325,2.967337131500244,-19.17493341565132,-48.742682456970215,10,18.709633186981737,0.0,0.0,0.0,10,0.0,-38.51570471646958,-87.23280339084675,-148.40613039549547,10,40.43132969791915,0.0,0.0,0.0,10,0.0,-100,-100.0,-100,10,0.0,40.327902531710464,25.64320641994169,11.973024337960993,10,10.346154858427266,2.4472918021542864,1.904116821398058,1.4338160780588671,10,0.33646506454298714,0.0,0.0,0.0,10,0.0,0.0,0.0,0.0,10,0.0,206.18206267104296,140.5105466851132,76.36618442625829,10,47.95656949355197,0.1,0.06178003657799054,0.037037037037037035,10,0.022287222733137498,5.653267,0.14780553,-6.1896043,4082,1.0996747,55,12.964670037598859,1,15426,6.294388568022649,119.47097337245941,-41.33957453522428,-183.20277976989746,15426,38.09265608882029,1054714.0,306.71950578689575,200018.0,41.0,9895.319245100021,8200738.0,652.120247412532,167362.0
0.57617766,0.022590613,189.1503,-0.10843619,0.022351252,0.12318992,15.135601,119.75524,119.73583,10.804137,-54.281883,268.07748,-53.609707,1.0,0.14469963,-1.0,205,0.7894431,0.34718519372889034,0.3448789329237034,0.33947912592141655,10,0.0026457725423456734,26,20.5,14,10,2.8722813232690143,20.902162432670593,3.1962739765644073,-22.401407957077026,10,11.764084341006665,0.0,0.0,0.0,10,0.0,-50.60725758264976,-84.87528139549805,-120.96230494889392,10,16.854796300124704,0.0,0.0,0.0,10,0.0,-100,-100.0,-100,10,0.0,38.18368049196969,29.029635080836776,19.20587101187151,10,4.6213994260585975,2.8550632140953907,2.4955385142152045,2.0495515428919284,10,0.278706224454574,0.0,0.0,0.0,10,0.0,0.0,0.0,0.0,10,0.0,198.54627071367983,156.5463830184048,106.91151876335338,10,21.933383086541205,0.07142857142857142,0.049885709256418644,0.038461538461538464,10,0.008115751574352343,5.995484,0.14699832,-5.8065968,4082,1.0984553,49,13.138334209143459,1,15224,6.32247089459925,152.9989077448845,-39.40488871651154,-183.3180480003357,15224,38.16345543565252,1069938.0,312.58618783950806,200018.0,42.0,10207.90543293953,8400756.0,639.8811200918954,171444.0
0.41087765,0.029125825,193.07841,-0.101506814,0.0029226386,0.116566926,15.127516,119.86949,119.85219,11.142077,-52.609097,282.1116,-52.037327,1.0,0.14690475,-1.0,179,0.7820459,0.3409219483018132,0.33658223789962116,0.3300946388949365,10,0.0035439318506646374,27,17.9,10,10,6.040695324215582,7.242190361022949,-19.71518755555153,-49.67025738954544,10,19.931989928110205,0.0,0.0,0.0,10,0.0,-39.55015891335818,-82.93356168178751,-142.31355916489616,10,37.320360742144594,0.0,0.0,0.0,10,0.0,-100,-100.0,-100,10,0.0,39.9854642702759,24.81627380985129,12.233244084282594,10,9.801578427706886,2.404865109480443,1.7102712737800114,1.2314298727048518,10,0.3653472337947592,0.0,0.0,0.0,10,0.0,0.0,0.0,0.0,10,0.0,206.18156728008663,136.6918287793608,76.36613861561514,10,46.12791125666512,0.1,0.06344964045192877,0.037037037037037035,10,0.023204725595246875,6.524202,0.14510521,-5.9630556,4082,1.0972896,60,13.52849214943151,1,14776,6.54794696229487,160.34774351119995,-35.76865467261576,-119.53969261050224,14776,39.04387117178721,1084714.0,303.17625546455383,200018.0,43.0,10511.081688404083,8600774.0,659.7416400354787,175526.0
0.32542184,0.019612687,197.27654,-0.09902746,0.005770218,0.11441504,15.111861,120.058205,120.04083,11.438635,-50.77387,294.41116,-50.32547,1.0,0.14621508,-1.0,147,0.7873527,0.3406666189318902,0.33678643649239076,0.3295581073102642,10,0.004671357258424834,19,14.7,9,10,3.9000000000000004,-11.055459260940552,-29.681962794065477,-53.218783140182495,10,16.537326340444494,0.0,0.0,0.0,10,0.0,-32.81130505035558,-62.66101293053023,-85.88256242183289,10,19.369973455922505,0.0,0.0,0.0,10,0.0,-100,-100.0,-100,10,0.0,26.203617824552598,19.142703587263313,10.935077811572626,10,5.727329458151803,1.844399135018686,1.5804826827147254,1.2652438379527489,10,0.19362177327437308,0.0,0.0,0.0,10,0.0,0.0,0.0,0.0,10,0.0,145.09274586988894,112.25586349649443,68.72987398146323,10,29.780915944021988,0.1111111111111111,0.07402771634969778,0.05263157894736842,10,0.022951307373321995,6.0083427,0.14222355,-5.936692,4082,1.0953302,54,13.618567928124149,1,14692,6.738798950092194,119.75630018115044,-34.236607297017656,-149.79911828786135,14692,40.30537711547848,1099406.0,313.95274591445923,200018.0,44.0,10825.034434318542,8800792.0,637.0958770161471,179608.0
0.2770401,0.019937074,201.49174,-0.09230924,0.0016720557,0.10802559,15.087782,120.28218,120.26533,11.702703,-49.080208,302.71014,-48.6612,1.0,0.14618924,-1.0,120,0.78994894,0.3403143551618981,0.3343544235912937,0.32947527632969753,10,0.004387866066397833,17,12.0,9,10,3.3466401061363023,-17.826658129692078,-39.41147495508194,-53.56859713792801,10,14.537591391641238,0.0,0.0,0.0,10,0.0,-32.516850736405374,-47.79020183924039,-73.08175336509856,10,15.867877515381934,0.0,0.0,0.0,10,0.0,-100,-100.0,-100,10,0.0,22.432625850517145,15.357711793633309,11.180296515803585,10,4.523751226950408,1.5974033683950672,1.3829632863361971,1.1153335368821,10,0.17265387576186217,0.0,0.0,0.0,10,0.0,0.0,0.0,0.0,10,0.0,129.81843805920997,91.63805282493763,68.72982779168689,10,25.555104753420732,0.1111111111111111,0.0895424836601307,0.058823529411764705,10,0.022390748899796385,5.6950045,0.14162844,-5.921093,4082,1.0935861,59,13.85568866421993,1,14441,6.74714329225391,129.1580240726471,-32.11212433860313,-169.73977662157267,14441,41.216494896401414,1113847.0,314.02365231513977,200018.0,45.0,11139.058086633682,9000810.0,636.9520210511757,183690.0
0.21186303,0.009785784,205.83766,-0.09302474,0.0067395307,0.10908007,15.068438,120.50128,120.48376,11.8918085,-47.379936,306.72504,-46.973766,1.0,0.13852604,-1.0,106,0.79431725,0.33645928174612527,0.3311835893973739,0.3278467264592754,10,0.003301541897358897,15,10.6,8,10,2.0591260281974,-22.267581701278687,-43.305825805664064,-54.64935374259949,10,9.335708239922601,0.0,0.0,0.0,10,0.0,-26.828221774302335,-39.08043747500255,-58.58433116665084,10,9.600317733315052,0.0,0.0,0.0,10,0.0,-100,-100.0,-100,10,0.0,20.03946892808381,13.330105163595519,9.974000023448827,10,2.99651598358968,1.731175761160699,1.4970299122097592,1.111752906144377,10,0.1566015133056563,0.0,0.0,0.0,10,0.0,0.0,0.0,0.0,10,0.0,114.54610738165019,80.94747672984651,61.09311724939066,10,15.723633942033484,0.125,0.09742063492063494,0.06666666666666667,10,0.016153523422833587,6.0710745,0.13983782,-5.9427614,4082,1.0915405,62,14.207702693100263,1,14073,6.757253617132437,129.8009933233261,-29.797383075900676,-258.3410125374794,14073,42.10217817975553,1127920.0,313.0914421081543,200018.0,46.0,11452.149528741837,9200828.0,638.848505897219,187772.0
0.18922769,0.010913792,210.29483,-0.09149589,0.0038459697,0.10789887,15.047955,120.81825,120.80118,12.078898,-45.716312,315.24094,-45.399975,1.0,0.13690792,-1.0,130,0.78177,0.33098388733732315,0.32731799915098014,0.3224399188131583,10,0.003122735874925507,20,13.0,10,10,3.4351128074635335,-4.703489780426025,-30.840731179714204,-46.45463144779205,10,14.906857853723356,0.0,0.0,0.0,10,0.0,-33.88962412082591,-48.98336118216987,-86.868717083573,10,16.749193791750987,0.0,0.0,0.0,10,0.0,-100,-100.0,-100,10,0.0,27.70569378901742,17.15492974329125,12.536720417613893,10,5.123880678105591,2.0627915239350734,1.7135587165687773,1.4793560410191018,10,0.15373304434413154,0.0,0.0,0.0,10,0.0,0.0,0.0,0.0,10,0.0,152.72683235581835,99.27414039110924,76.36564839022247,10,26.23077444418245,0.1,0.0819079939668175,0.05,10,0.019175665589431658,5.9045706,0.13741544,-5.790926,4082,1.0898495,54,14.511173995066029,1,13782,6.873780569970283,139.64119797572494,-28.3067744376058,-185.747962474823,13782,43.93505857172771,1141702.0,301.1481533050537,200018.0,47.0,11753.29768204689,9400846.0,664.1847137524632,191854.0
0.130306,0.009771356,214.46425,-0.08745028,0.00039251416,0.10417849,15.028691,121.23058,121.21424,12.226777,-44.01608,324.37012,-43.729828,1.0,0.12993366,-1.0,182,0.7649047,0.32487286114987995,0.32070863836004204,0.3174071205620685,10,0.001843929763390346,22,18.2,13,10,2.315167380558045,7.262279629707336,-5.404857742786407,-26.53478306531906,10,10.125376241378344,0.0,0.0,0.0,10,0.0,-45.29299135604303,-71.736884287761,-96.07607210599728,10,12.613149316696589,0.0,0.0,0.0,10,0.0,-100,-100.0,-100,10,0.0,30.69872514210388,25.370105215902278,17.612700562041976,10,3.6859306076086327,2.1923929495885903,1.9798492720217684,1.8266268071286604,10,0.10451271730765829,0.0,0.0,0.0,10,0.0,0.0,0.0,0.0,10,0.0,167.9992684719616,138.9820710998868,99.27462661547466,10,17.67864606943734,0.07692307692307693,0.05597830231344163,0.045454545454545456,10,0.008250951110979671,6.0643587,0.13560025,-6.406826,4082,1.0883061,51,15.119830649429197,1,13227,6.8829276700181845,151.04728266596794,-24.666680258486473,-113.67467753589153,13227,44.70853223077983,1154929.0,302.2625479698181,200018.0,48.0,12055.560230016708,9600864.0,661.7359687577716,195936.0
0.028789915,0.0022240405,218.50848,-0.08087909,2.1573072e-05,0.09792276,15.016095,121.69921,121.683105,12.366162,-42.518196,331.77774,-42.285313,1.0,0.12894051,-1.0,140,0.77424586,0.32965598267406976,0.3231386549005425,0.3125566303393236,10,0.005837128563064815,21,14.0,6,10,6.212889826803627,10.352195143699646,-26.184753954410553,-71.15947210788727,10,34.32722708190698,0.0,0.0,0.0,10,0.0,-25.485836594896437,-53.87593371072539,-86.60745703017207,10,22.975752550956162,0.0,0.0,0.0,10,0.0,-100,-100.0,-100,10,0.0,29.09397936114438,18.924750857303685,7.386074653444686,10,9.085106567379263,2.4258937908383666,1.856164131594241,1.1199451145449275,10,0.5515590790587581,0.0,0.0,0.0,10,0.0,0.0,0.0,0.0,10,0.0,160.36771299988135,106.91026501858406,45.82034618396933,10,47.44306686434374,0.16666666666666666,0.09200918964076858,0.047619047619047616,10,0.04726420300225451,5.7254376,0.13535537,-5.708482,4082,1.0866807,51,15.360816827882696,1,13026,6.910396669976024,134.76102715730667,-23.104898223291503,-116.58453714847565,13026,45.30570978797824,1167955.0,298.27000308036804,200018.0,49.0,12353.830233097076,9800882.0,670.5937504084368,200018.0
0.00049167074,3.714058e-05,222.57153,-0.08051853,1.2097272e-06,0.09787911,14.995339,122.253265,122.23746,12.475895,-41.154552,337.13525,-40.967407,1.0,0.11798237,-1.0,85,0.805185,0.325891225364647,0.32284983119661154,0.31107482645489637,10,0.004004664048844441,23,8.5,6,10,4.8425200051213,19.64590346813202,-56.966977989673616,-71.32730829715729,10,25.616071648734756,0.0,0.0,0.0,10,0.0,-25.426416282465162,-34.22796459552321,-91.19511494101707,10,19.016201057064237,0.0,0.0,0.0,10,0.0,-100,-100.0,-100,10,0.0,32.74153625075248,10.936846283474939,7.14129700035007,10,7.28477939631846,2.463578012581945,1.4130626601735672,1.13751637609065,10,0.3686197747867993,0.0,0.0,0.0,10,0.0,0.0,0.0,0.0,10,0.0,175.6359040671512,64.91107736913537,45.820293074155124,10,36.97843291464586,0.16666666666666666,0.13530020703933748,0.043478260869565216,10,0.03141971167848754,6.0075083,0.13147235,-5.7583365,4082,1.0858073,59,15.499186487952274,1,12907,6.977505064975019,136.15623396635056,-21.29003497097636,-156.99425864219666,12907,46.28416649502667,1180862.0,304.5074806213379,200018.0,50.0,12658.337713718414,10000900.0,656.8574262670644,204100.0
2.4697061e-05,1.8612214e-06,226.6195,-0.08026783,6.514973e-08,0.097944155,14.979785,122.789764,122.77397,12.584792,-39.587864,344.0538,-39.414024,1.0,0.12309331,-1.0,206,0.7513302,0.31805339281427986,0.31240239826373917,0.29871671984279313,10,0.005110886727055642,38,20.6,15,10,6.151422599691879,16.524210214614868,2.8215421885252,-14.374727725982666,10,10.832613899405382,0.0,0.0,0.0,10,0.0,-51.76037186108346,-85.59699897179067,-248.9092282286596,10,55.16495538230116,0.0,0.0,0.0,10,0.0,-100,-100.0,-100,10,0.0,55.031807007251146,28.444949644198868,20.41026462610209,10,9.404380306820386,4.8415457080416635,2.6644911000675435,2.1123904761153915,10,0.7427140877682396,0.0,0.0,0.0,10,0.0,0.0,0.0,0.0,10,0.0,290.1830250258441,157.30910022747202,114.54628740935838,10,46.97464124385984,0.06666666666666667,0.05152743154678139,0.02631578947368421,10,0.010471864784009228,5.9506817,0.12741578,-5.9173846,4082,1.0845647,66,15.66507364462551,1,12764,7.161231269773597,134.8283924460411,-18.903084717928834,-110.37532550096512,12764,47.2576528785312,1193626.0,304.9459319114685,200018.0,51.0,12963.283645629883,10200918.0,655.9129965966195,208182.0
1.5711553e-06,1.1765177e-07,230.58109,-0.07554338,4.8983453e-09,0.09352871,14.9778185,123.26862,123.25316,12.721346,-38.197575,349.40524,-38.083786,1.0,0.121876284,-1.0,199,0.75172126,0.31980456776991406,0.31136038549957,0.2991428092244222,10,0.005697107764587734,30,19.9,10,10,5.7523908073078625,47.076862966641784,8.17512332405895,-41.144165098667145,10,23.39743743499118,0.0,0.0,0.0,10,0.0,-32.52109981143647,-74.32039421946057,-134.67846557862399,10,30.86059986309772,0.0,0.0,0.0,10,0.0,-100,-100.0,-100,10,0.0,44.239221744410514,27.910428943490565,13.215454834710563,10,8.703894622141657,3.550436823527003,2.620533585526667,1.7956196077323585,10,0.495400257513338,0.0,0.0,0.0,10,0.0,0.0,0.0,0.0,10,0.0,229.09660549909904,151.96455467686974,76.36585674848988,10,43.928964669541955,0.1,0.05488089095287237,0.03333333333333333,10,0.017595862794818697,5.7305965,0.123456046,-5.7110353,4082,1.0852942,46,15.489933405606319,1,12914,7.1237930481021845,148.3334692120552,-18.627630123022463,-157.9775025844574,12914,48.29545167650051,1206540.0,299.3097014427185,200018.0,52.0,13262.593347072601,10400936.0,668.2643396985887,212264.0
1.4786025e-07,1.0877074e-08,234.19772,-0.072708346,6.560221e-10,0.09097578,14.97616,123.671776,123.65646,12.806483,-36.831657,353.56995,-36.720665,1.0,0.11586417,-1.0,204,0.75168055,0.31769600917787755,0.3080299112193264,0.2987902988862802,10,0.006036672800394681,25,20.4,16,10,2.727636339397171,44.311937749385834,18.644105869531632,-5.378941893577576,10,15.180478822476667,0.0,0.0,0.0,10,0.0,-51.93200268420904,-69.38710368371139,-87.3917749787033,10,11.018620284411679,0.0,0.0,0.0,10,0.0,-100,-100.0,-100,10,0.0,36.90597619812637,29.288361852948743,22.078134312240014,10,4.658604495721435,3.7620572909911583,2.9613249399481245,2.2892218946400162,10,0.3917715539952869,0.0,0.0,0.0,10,0.0,0.0,0.0,0.0,10,0.0,190.90762531416513,155.78152288677413,122.18570463456017,10,20.828160345887447,0.0625,0.04992383923266276,0.04,10,0.006829014087965338,5.874505,0.11891034,-5.469519,4082,1.0852618,83,15.99512312120243,1,12508,7.28486731890464,168.429882645607,-14.61939688227606,-164.2524115666747,12508,48.754595386500306,1219048.0,307.7562675476074,200018.0,53.0,13570.349614620209,10600954.0,649.923400728334,216346.0
5.334207e-08,3.794472e-09,238.0833,-0.071405604,3.662094e-10,0.08997611,14.981776,124.02643,124.011284,12.962375,-35.64061,358.853,-35.597603,1.0,0.109447725,-1.0,210,0.75381064,0.3099271984691665,0.3067320189616609,0.3028015767481676,10,0.0019720144225446826,26,21.0,18,10,2.6076809620810595,34.188515067100525,15.503623151779175,-0.43625015020370483,10,9.599749529741961,0.0,0.0,0.0,10,0.0,-58.087247404331755,-77.96801566573173,-112.23676898494922,10,15.933003194169421,0.0,0.0,0.0,10,0.0,-100,-100.0,-100,10,0.0,37.37775044506491,29.99760020289512,24.91062811468885,10,3.9845558049106713,4.221467866784713,3.1106629370842986,2.704518242850481,10,0.4024611314869607,0.0,0.0,0.0,10,0.0,0.0,0.0,0.0,10,0.0,198.54510521748222,160.36337585773651,137.45563785990865,10,19.91321741973957,0.05555555555555555,0.04830091393478121,0.038461538461538464,10,0.00551460784126776,5.8831573,0.11402351,-5.8650265,4082,1.0850306,54,16.07270972412129,1,12433,7.338953091472797,151.17320090532303,-14.503723212788461,-190.66197085380554,12433,50.56034343018619,1231481.0,305.9765338897705,200018.0,54.0,13876.32614850998,10800972.0,653.7037251100355,220428.0
4.262771e-08,2.9943676e-09,241.9501,-0.070092194,3.305947e-10,0.0889643,14.975934,124.32631,124.31136,13.020235,-34.31175,361.2464,-34.252884,1.0,0.10368686,-1.0,202,0.7531588,0.30595796924990804,0.30247524413426563,0.2978440833499375,10,0.0025533466028538772,24,20.2,18,10,2.039607805437114,27.6296865940094,15.647197216749191,0.18117517232894897,10,9.570166677825325,0.0,0.0,0.0,10,0.0,-59.15792347374989,-71.367323242738,-94.71323972325223,10,10.358160632685031,0.0,0.0,0.0,10,0.0,-100,-100.0,-100,10,0.0,35.57766117284845,29.558592893926296,25.919298748316677,10,3.026800476176254,3.4927107906453694,3.2016238788066587,2.940588148005467,10,0.18325116551880735,0.0,0.0,0.0,10,0.0,0.0,0.0,0.0,10,0.0,183.27255131254077,154.25430339789085,137.45382406549126,10,15.575141361690552,0.05555555555555555,0.05000360750360751,0.041666666666666664,10,0.004955414079140014,6.3815312,0.11076182,-5.5352926,4082,1.0857115,62,16.50908040283969,1,12114,7.314575390148183,146.6140762269497,-10.901923459181107,-159.4666006937623,12114,49.98306708909326,1243595.0,306.00520968437195,200018.0,55.0,14182.331358194351,11000990.0,653.6424664348293,224510.0
3.9132313e-08,2.7442406e-09,245.64288,-0.06704881,3.0807992e-10,0.08620896,14.976348,124.52617,124.51156,13.037543,-33.104385,366.02002,-33.04112,1.0,0.10025296,-1.0,218,0.74967754,0.30548333510934084,0.2991839808341028,0.2913180746550301,10,0.004211499570215822,34,21.8,19,10,4.556314299957807,44.57360656559467,17.388632901012897,4.976473689079285,10,12.321306437045322,0.0,0.0,0.0,10,0.0,-65.11879865193653,-85.29018423550681,-172.11194028856832,10,30.930806772181292,0.0,0.0,0.0,10,0.0,-100,-100.0,-100,10,0.0,52.27507057114489,32.41738287068697,27.127770030077386,10,7.30805665176386,4.773694667442224,3.7883604925392342,3.1748017988050323,10,0.5046507421128525,0.0,0.0,0.0,10,0.0,0.0,0.0,0.0,10,0.0,259.6367850589954,166.47307406088262,145.08994905343152,10,34.793570225729766,0.05263157894736842,0.04741340447142035,0.029411764705882353,10,0.007494772532164688,6.3008366,0.10592072,-5.9165435,4082,1.085026,59,16.848063973063972,1,11880,7.361234545208941,145.6610773205757,-8.695018361526017,-111.17518410086632,11880,50.18751996087847,1255475.0,299.0756447315216,200018.0,56.0,14481.407002925873,11201008.0,668.7873236202665,228592.0
3.7141227e-08,2.6034275e-09,249.32875,-0.0667893,2.9358818e-10,0.08623695,14.971069,124.76383,124.74928,13.052683,-31.86349,368.50052,-31.784813,1.0,0.0950793,-1.0,204,0.7535872,0.30211419242027704,0.29760814540043967,0.2953012697534185,10,0.0019547805625275846,23,20.4,18,10,1.562049935181331,38.447543025016785,18.335954320430755,1.18333101272583,10,10.820114751099112,0.0,0.0,0.0,10,0.0,-66.64250502708492,-71.50346571306963,-80.01085618120449,10,4.1997246323506765,0.0,0.0,0.0,10,0.0,-100,-100.0,-100,10,0.0,33.90536211899418,30.452624837639963,27.08276692265267,10,2.290340397504427,4.503049731811627,3.6047191900845106,3.119432781048442,10,0.41657694216220675,0.0,0.0,0.0,10,0.0,0.0,0.0,0.0,10,0.0,175.6369292515955,155.78207589437775,137.45501031068187,10,11.928024520250991,0.05555555555555555,0.049301333042751805,0.043478260869565216,10,0.0036910335804952944,6.045176,0.10146849,-5.6762166,4082,1.0846893,53,17.16423545563755,1,11654,7.293120368818949,143.72403806447983,-6.945602249276901,-110.85783908888698,11654,50.27577831030545,1267129.0,300.8482267856598,200018.0,57.0,14782.255229711533,11401026.0,664.8468636064238,232674.0
3.5725716e-08,2.5050797e-09,253.03369,-0.06455649,2.8152597e-10,0.084293105,14.947616,124.872894,124.85846,12.969544,-30.860903,363.45145,-30.74886,1.0,0.0905379,-1.0,194,0.7552099,0.30068979131296153,0.29552380475474394,0.2915276332332003,10,0.0025056646061903326,23,19.4,17,10,1.624807680927192,33.99118596315384,13.286918890476226,-4.292850732803345,10,9.973577240622761,0.0,0.0,0.0,10,0.0,-60.30387950020569,-68.43467531757328,-82.47640829039054,10,6.486869996791138,0.0,0.0,0.0,10,0.0,-100,-100.0,-100,10,0.0,37.423324820970684,30.058308042324903,26.543943693003495,10,2.9710337761976855,4.068244756412267,3.5173858002217293,3.073747136188273,10,0.3501662212054964,0.0,0.0,0.0,10,0.0,0.0,0.0,0.0,10,0.0,175.6352566335673,148.14590028994584,129.81851337937337,10,12.407092323846728,0.058823529411764705,0.05189266858535939,0.043478260869565216,10,0.0041561852869722625,5.6943164,0.095995314,-5.9224668,4082,1.0829793,54,17.35846928149948,1,11524,7.471699256373498,157.68358394503593,-5.377536793446336,-179.34850120544434,11524,51.36021548218951,1278653.0,237.6313886642456,200018.0,58.0,15019.886618375778,11601044.0,841.7154026844898,236756.0
3.4607407e-08,2.4271671e-09,256.75476,-0.064046554,2.7221078e-10,0.084073424,14.930539,125.06244,125.04812,12.894794,-29.762661,363.6641,-29.617743,1.0,0.09023309,-1.0,206,0.74861544,0.30265348570385087,0.2920621794991955,0.2845793475534706,10,0.004751106043144723,26,20.6,14,10,3.0397368307141326,44.913004755973816,20.627569150924682,-23.638162851333618,10,17.32966700852799,0.0,0.0,0.0,10,0.0,-54.105168117430594,-72.96177808163233,-98.9493529211111,10,12.896225644488114,0.0,0.0,0.0,10,0.0,-100,-100.0,-100,10,0.0,40.629998483071596,32.48450057221535,20.430698038916525,10,5.160164420210662,4.685663520945352,3.7962590446499918,3.1255859819869425,10,0.40538777952828575,0.0,0.0,0.0,10,0.0,0.0,0.0,0.0,10,0.0,198.54669561160185,157.30858681836284,106.91071833435649,10,23.21228162100871,0.07142857142857142,0.049790618588572554,0.038461538461538464,10,0.00863876565486834,5.9280167,0.09383473,-5.94744,4082,1.0813069,52,17.3722951247067,1,11507,7.4854459620101705,148.8415675163269,-5.140613662549009,-163.13190841674805,11507,51.5627865502534,1290160.0,241.35543370246887,200018.0,59.0,15261.242052078247,11801062.0,828.7279757147393,240838.0
3.3666808e-08,2.3635454e-09,260.2162,-0.060537912,2.624659e-10,0.08083478,14.91449,125.158356,125.14416,12.796315,-29.072584,358.436,-28.924109,1.0,0.08558128,-1.0,183,0.75598043,0.2994279149652301,0.2941352653873047,0.2903139218916862,10,0.0033765221362487023,21,18.3,16,10,1.4866068747318506,27.66049826145172,9.199291902780534,-6.50277453660965,10,9.296119140105354,0.0,0.0,0.0,10,0.0,-55.69207329946139,-62.52237306429767,-70.86983582997274,10,5.471269138816424,0.0,0.0,0.0,10,0.0,-100,-100.0,-100,10,0.0,34.14544226499043,28.46507327045124,24.023996123992895,10,2.840872283312639,4.149342393804166,3.5114041009938157,2.9827324628312537,10,0.36734096655601306,0.0,0.0,0.0,10,0.0,0.0,0.0,0.0,10,0.0,160.36224708514,139.74518774098976,122.18256666056641,10,11.351453464667664,0.0625,0.05499883286647993,0.047619047619047616,10,0.004372662422990987,5.834111,0.09098021,-5.5504627,4082,1.079683,56,17.51698476624059,1,11422,7.396967563322449,144.84828156232834,-3.881294908720999,-197.02778148651123,11422,51.33928854660217,1301582.0,248.96654343605042,200018.0,60.0,15510.208595514297,12001080.0,803.3930874385806,244920.0
3.284694e-08,2.3050903e-09,263.577,-0.060529985,2.5697144e-10,0.081089,14.88534,125.21598,125.20178,12.716313,-28.434805,353.62656,-28.232136,1.0,0.087931216,-1.0,221,0.7417041,0.2948677207926052,0.28925914830756344,0.2806717454332399,10,0.003799421434942605,48,22.1,15,10,8.960468737739115,37.79446119070053,13.47821686565876,-10.115005373954773,10,14.775400846105354,0.0,0.0,0.0,10,0.0,-49.52839668023217,-95.83568322850114,-372.71848155683,10,92.85159099825852,0.0,0.0,0.0,10,0.0,-100,-100.0,-100,10,0.0,92.0246422411937,36.20838336006688,21.648805305123023,10,19.122642924273343,9.704267333992048,4.342476290732084,3.2191350345178686,10,1.8166084905835436,0.0,0.0,0.0,10,0.0,0.0,0.0,0.0,10,0.0,366.5467835721474,168.76303818291188,114.54544986220883,10,68.4258802722263,0.06666666666666667,0.04973149786230281,0.020833333333333332,10,0.011739222117503919,5.9762754,0.08977053,-5.8957567,4082,1.0783566,60,17.6785083068222,1,11316,7.349469777540234,149.74681621789932,-2.274000455434044,-148.8169298171997,11316,50.87350309292484,1312898.0,240.59180879592896,200018.0,61.0,15750.800404310226,12201098.0,831.3583118270504,249002.0
3.2107923e-08,2.2585966e-09,266.84125,-0.058296703,2.4582195e-10,0.07911032,14.875436,125.24673,125.232956,12.646442,-27.66052,349.75162,-27.477879,1.0,0.08103374,-1.0,175,0.7515797,0.2917554436150303,0.28835577516831845,0.28334364256696576,10,0.00283711673543643,21,17.5,9,10,3.138470965295043,27.795731902122498,4.255628454685211,-51.27948546409607,10,20.5234746610485,0.0,0.0,0.0,10,0.0,-34.61223896588244,-59.05454131240593,-69.3931654118096,10,9.373143879763086,0.0,0.0,0.0,10,0.0,-100,-100.0,-100,10,0.0,33.025725914309184,26.225283256266444,11.940931924595942,10,5.495555579835742,3.9493604865259417,3.448793514922973,2.662096513426246,10,0.36538836163187544,0.0,0.0,0.0,10,0.0,0.0,0.0,0.0,10,0.0,160.36242084105166,133.63609193655438,68.72972153439514,10,23.965671326065078,0.1111111111111111,0.060198351270332684,0.047619047619047616,10,0.017437662769216808,5.7751007,0.08884481,-5.8259916,4082,1.0769761,73,17.99756953821226,1,11109,7.384913412744896,143.7020503282547,0.7527336415917734,-102.82118985056877,11109,50.92789657127633,1324007.0,250.5630578994751,200018.0,62.0,16001.363462209702,12401116.0,798.2741018440413,253084.0
3.1443093e-08,2.2149822e-09,269.76474,-0.05758654,2.37579e-10,0.0786282,14.850368,125.24987,125.23612,12.616793,-26.877563,348.3361,-26.702446,1.0,0.08163051,-1.0,169,0.7542031,0.29692686590327233,0.2897695757925468,0.28373275146027643,10,0.003852195932291856,20,16.9,10,10,3.2388269481403293,25.417680740356445,0.6657785534858703,-44.3986137509346,10,22.88472803333015,0.0,0.0,0.0,10,0.0,-37.07126291329402,-58.47936420466069,-73.26569576890391,10,9.502860885773167,0.0,0.0,0.0,10,0.0,-100,-100.0,-100,10,0.0,34.18231035954532,26.41858463908694,13.693986514848948,10,6.296302960463639,4.585260921432488,3.6723504006553163,2.6130027801442877,10,0.5493587361202626,0.0,0.0,0.0,10,0.0,0.0,0.0,0.0,10,0.0,152.72617831355007,129.05420776085083,76.36566332170979,10,24.731589608970513,0.1,0.061973622782446315,0.05,10,0.014998865925084946,5.6396856,0.08731758,-5.613769,4082,1.076439,51,17.850816891348988,1,11201,7.3311101396327025,148.51196438074112,0.39332157568618853,-108.21094137430191,11201,51.248759780900464,1335208.0,249.16301321983337,200018.0,63.0,16250.526475429535,12601134.0,802.7595966802932,257166.0
3.0835068e-08,2.1729976e-09,272.66083,-0.055542447,2.3213832e-10,0.076809995,14.841157,125.20189,125.18829,12.5155525,-26.45539,345.55878,-26.265203,1.0,0.083791085,-1.0,191,0.7495945,0.2931785751300314,0.2884749780436581,0.2854848518224069,10,0.0025886151990470625,23,19.1,16,10,1.8681541692269403,46.38549745082855,15.810110062360764,-5.6178988218307495,10,13.810690891172523,0.0,0.0,0.0,10,0.0,-55.38071147455703,-64.62662994056225,-73.43103832696217,10,5.35719026327794,0.0,0.0,0.0,10,0.0,-100,-100.0,-100,10,0.0,38.687212816894416,30.55487560715381,24.365675126323175,10,3.8886843840038114,5.493378546732239,4.027726843960961,3.215441873443499,10,0.5936962146840862,0.0,0.0,0.0,10,0.0,0.0,0.0,0.0,10,0.0,175.6359432302113,145.85413817023667,122.18169526439496,10,14.265898700507384,0.0625,0.05285027092454068,0.043478260869565216,10,0.005095402554549141,5.684385,0.086188525,-5.9274144,4082,1.0754284,57,17.895993561080306,1,11182,7.586819618153505,154.58274644613266,0.059628010136012176,-175.7674126625061,11182,53.28537275850654,1346390.0,235.7219750881195,200018.0,64.0,16486.248450517654,12801152.0,848.5335316116694,261248.0
3.0271774e-08,2.133805e-09,275.78247,-0.054551244,2.2739359e-10,0.076062284,14.833339,125.19348,125.17989,12.480871,-25.843842,347.65143,-25.637474,1.0,0.08029252,-1.0,176,0.756399,0.2933603628458562,0.2909651877899562,0.28838043912948536,10,0.001768818722012304,21,17.6,14,10,2.416609194718914,26.576883375644684,6.449601525068283,-22.061796009540558,10,18.19376308775023,0.0,0.0,0.0,10,0.0,-50.010701160899984,-59.355582498986465,-71.57426181826196,10,6.036779648393165,0.0,0.0,0.0,10,0.0,-100,-100.0,-100,10,0.0,33.78753742889903,27.5854406011251,19.981652765481154,10,4.829973558249953,4.515705276282385,3.8194526524155323,3.209539596081315,10,0.48983987132880036,0.0,0.0,0.0,10,0.0,0.0,0.0,0.0,10,0.0,160.36375664698448,134.4002898377937,106.91026083584312,10,18.45363588141628,0.07142857142857142,0.05795628777826921,0.047619047619047616,10,0.008337962676010977,5.7957153,0.08592424,-5.40723,4082,1.0759085,55,18.200345737421525,1,10991,7.462146848086252,154.44415873289108,3.4313506279855788,-107.13101994991302,10991,51.93735688101778,1357381.0,247.7111999988556,200018.0,65.0,16733.95965051651,13001170.0,807.4644989848019,265330.0
2.9756494e-08,2.100728e-09,279.02905,-0.05297489,2.2027849e-10,0.07473916,14.835203,125.235245,125.22184,12.454628,-25.2224,345.1175,-24.966795,1.0,0.07887996,-1.0,190,0.7510323,0.2912183530090029,0.2881051872209479,0.28551796477545244,10,0.001842931298078428,21,19.0,16,10,1.4832396974191326,31.512405931949615,16.55015038251877,-4.295791864395142,10,9.47399343335058,0.0,0.0,0.0,10,0.0,-54.185722450962295,-62.121826248573065,-69.4988151504644,10,5.825290754447123,0.0,0.0,0.0,10,0.0,-100,-100.0,-100,10,0.0,33.462351331061704,29.736652185820766,25.097650791793896,10,2.4704607207677545,4.340233140592526,3.844698042412971,3.3377942450728333,10,0.35317520067596664,0.0,0.0,0.0,10,0.0,0.0,0.0,0.0,10,0.0,160.36330409186778,145.09062683082317,122.18218167518958,10,11.326331811930773,0.0625,0.05296679197994987,0.047619047619047616,10,0.004312914676443699,5.8925004,0.085571185,-5.737602,4082,1.0759923,57,18.235824977210573,1,10970,7.519630467558746,156.82403564453125,3.2517992988750968,-149.45867657661438,10970,52.32310628556173,1368351.0,259.3444426059723,200018.0,66.0,16993.304093122482,13201188.0,771.2445965302281,269412.0
2.9287827e-08,2.0710675e-09,282.05917,-0.051024023,2.1338291e-10,0.07302464,14.840553,125.19761,125.184425,12.563344,-24.610489,348.0155,-24.381119,1.0,0.07483715,-1.0,178,0.75445586,0.2920371243740483,0.2871356479553676,0.28145807826364055,10,0.002592985249938519,20,17.8,16,10,1.0770329614269007,27.120512783527374,7.195646804571152,-7.5236868262290955,10,9.12416456495409,0.0,0.0,0.0,10,0.0,-56.66101080130856,-60.103882950214235,-65.03037043833348,10,2.42020318740907,0.0,0.0,0.0,10,0.0,-100,-100.0,-100,10,0.0,31.86470529177865,27.750259540557447,23.702779824528832,10,2.4338080241606215,4.260161463942973,3.6222762433476157,3.0836764847654234,10,0.3682060478226743,0.0,0.0,0.0,10,0.0,0.0,0.0,0.0,10,0.0,152.72685110178162,135.92699327195004,122.18214479881328,10,8.224364049214614,0.0625,0.05638243894048848,0.05,10,0.0033591776289723548,5.97882,0.083326794,-5.719289,4082,1.075624,56,18.437805440295065,1,10845,7.574101731380188,148.62744784355164,4.627487289530403,-153.89332342147827,10845,52.48232577839768,1379196.0,257.2848160266876,200018.0,67.0,17250.58890914917,13401206.0,777.418594260349,273494.0
2.886682e-08,2.041091e-09,285.05264,-0.049842034,2.105208e-10,0.07207614,14.842208,125.21664,125.203476,12.592697,-24.047153,348.7014,-23.86845,1.0,0.0756856,-1.0,195,0.7473547,0.29012594090697863,0.2856043237934694,0.28161416518213217,10,0.002281680567678295,21,19.5,18,10,1.2041594578792296,31.17294281721115,19.02555973827839,6.193135201931,10,8.533141141768413,0.0,0.0,0.0,10,0.0,-59.6828265845249,-65.1850560868237,-72.90868089158417,10,3.6755541040276785,0.0,0.0,0.0,10,0.0,-100,-100.0,-100,10,0.0,34.74543347317482,31.3786382933899,28.540987798987604,10,1.8492554294207058,4.405386443185091,3.9234992373800255,3.5286681433871525,10,0.2913022833593846,0.0,0.0,0.0,10,0.0,0.0,0.0,0.0,10,0.0,160.3626756663907,148.90847746692697,137.45350687825854,10,9.195201844504695,0.05555555555555555,0.05147869674185464,0.047619047619047616,10,0.0031872303067464578,5.8847265,0.08333361,-5.5802965,4082,1.0752522,62,18.613416449572014,1,10748,7.539838032083527,145.88469085097313,5.900189923263503,-152.7674117088318,10748,52.46708297380944,1389944.0,240.19877576828003,200018.0,68.0,17490.78768491745,13601224.0,832.7186487951027,277576.0
2.849535e-08,2.0170996e-09,287.88635,-0.04846626,2.055381e-10,0.07092139,14.834944,125.23469,125.22152,12.6413,-23.566332,346.76047,-23.35726,1.0,0.07840612,-1.0,198,0.7433616,0.2886440269258055,0.28478055998872787,0.2787120864707748,10,0.0028698787444425156,26,19.8,18,10,2.7129319932501077,65.59811866283417,22.043655383586884,4.406230807304382,10,19.438307579371763,0.0,0.0,0.0,10,0.0,-58.82984422292474,-66.50131288789922,-84.63152358997488,10,8.395765978781995,0.0,0.0,0.0,10,0.0,-100,-100.0,-100,10,0.0,45.849411688019565,33.17978157418372,28.042596842131836,10,5.878844547296758,5.835499957034496,4.1655581670855675,3.4824167713253846,10,0.811852871641587,0.0,0.0,0.0,10,0.0,0.0,0.0,0.0,10,0.0,198.54472715553848,151.19962743751708,137.45409847897665,10,20.716895533654693,0.05555555555555555,0.051316914080071975,0.038461538461538464,10,0.0059448239279466355,6.098859,0.08410641,-5.991535,4082,1.074328,57,18.75933571026459,1,10658,7.497792857800902,155.04287791252136,7.54321284906904,-106.58727607131004,10658,52.062311469708085,1400602.0,234.79760098457336,200018.0,69.0,17725.585285902023,13801242.0,851.8741212059554,281658.0
2.8163328e-08,1.994463e-09,290.6106,-0.046891432,2.0227635e-10,0.06955906,14.819429,125.29751,125.284424,12.627264,-23.147469,343.13824,-22.924385,1.0,0.07704264,-1.0,187,0.7494328,0.2893700475982157,0.2870867733339893,0.282789385109311,10,0.0022777930460957784,23,18.7,17,10,1.676305461424021,53.313080072402954,15.634876626729966,1.5525541305541992,10,14.58755571120035,0.0,0.0,0.0,10,0.0,-55.158621121507245,-61.45455291496603,-67.03089347889379,10,3.729506747609535,0.0,0.0,0.0,10,0.0,-100,-100.0,-100,10,0.0,38.970224821645814,30.430281213195116,26.43614942807422,10,3.5424291380353377,5.737843266839772,3.8591357317218256,3.1501914924067163,10,0.7096269527431073,0.0,0.0,0.0,10,0.0,0.0,0.0,0.0,10,0.0,175.63590370394877,142.80001108697064,129.81840407791887,10,12.800678641265549,0.058823529411764705,0.05386106998100537,0.043478260869565216,10,0.0043182289830405235,5.9899893,0.085272744,-5.5085526,4082,1.0733782,57,18.604203478099134,1,10753,7.515775838232031,153.60443234443665,6.843341925722665,-155.72523593902588,10753,52.51993696922996,1411355.0,238.84104299545288,200018.0,70.0,17964.426328897476,14001260.0,837.452380426123,285740.0
2.7876036e-08,1.9755193e-09,293.37726,-0.04718349,1.9881187e-10,0.070066914,14.800742,125.30412,125.29116,12.612986,-22.63191,341.0402,-22.433012,1.0,0.07888217,-1.0,187,0.74332124,0.28689163194375533,0.28422157279078386,0.2792238343910067,10,0.002211849464784811,23,18.7,16,10,1.9519221295943134,41.779372572898865,14.781243902444839,-2.5391880869865417,10,13.569898630081958,0.0,0.0,0.0,10,0.0,-54.563562730507186,-62.92400005717938,-79.51618167112358,10,6.6327050925614754,0.0,0.0,0.0,10,0.0,-100,-100.0,-100,10,0.0,40.415594442354994,31.05981649892783,26.092009735325625,10,4.255033712265876,5.243185944975756,3.8456675794922894,3.3001797632113186,10,0.5744068969885371,0.0,0.0,0.0,10,0.0,0.0,0.0,0.0,10,0.0,175.63677708288708,142.79975899902766,122.18312028440214,10,14.905537689971977,0.0625,0.054025021526535856,0.043478260869565216,10,0.00529771076528359,6.144494,0.08637746,-5.6120377,4082,1.0714034,59,18.785674051821253,1,10652,7.48579637560676,157.69743865728378,8.196403446155603,-140.3097421526909,10652,52.670290996723715,1422007.0,243.53210020065308,200018.0,71.0,18207.95842909813,14201278.0,821.3208847425019,289822.0
2.7620624e-08,1.957685e-09,295.93213,-0.04588208,1.9672343e-10,0.06896478,14.782407,125.344826,125.3318,12.567551,-22.163044,340.17114,-21.959625,1.0,0.079220995,-1.0,185,0.73977697,0.2880473961246653,0.2824191432481762,0.27815733842628343,10,0.0034068996172228706,20,18.5,16,10,1.284523257866513,29.13705551624298,14.33320295214653,-3.850831151008606,10,9.88634264441591,0.0,0.0,0.0,10,0.0,-55.13564063030964,-61.80434939683046,-66.11191412889868,10,3.5270186240621606,0.0,0.0,0.0,10,0.0,-100,-100.0,-100,10,0.0,35.339650388916446,30.79263108297721,25.601115890188915,10,2.9947452251888533,4.586549379650226,4.072293635588011,3.4996448698465192,10,0.3839689224665396,0.0,0.0,0.0,10,0.0,0.0,0.0,0.0,10,0.0,152.72684597515112,141.2726273814794,122.18208766283402,10,9.808824673705569,0.0625,0.05432533539731682,0.05,10,0.003917427936701785,5.998931,0.08670756,-5.6415143,4082,1.0694841,55,18.83983418127002,1,10614,7.486384337782932,157.30042850971222,8.677021406898048,-143.90419244766235,10614,53.291916892245744,1432621.0,241.32687067985535,200018.0,72.0,18449.285299777985,14401296.0,828.8260624957269,293904.0
2.738941e-08,1.9433197e-09,298.2935,-0.044838246,1.9305463e-10,0.06810514,14.766017,125.36707,125.35418,12.459799,-21.666178,336.5624,-21.47874,1.0,0.081641145,-1.0,208,0.7301334,0.28710013042508487,0.27863143373914456,0.26904311810954673,10,0.0055210867775461305,24,20.8,18,10,2.1354156504062622,47.791555881500244,30.817032080888747,7.722937226295471,10,13.748303529759205,0.0,0.0,0.0,10,0.0,-55.201506855487544,-68.1245833017733,-82.21616072148021,10,8.1645228075966,0.0,0.0,0.0,10,0.0,-100,-100.0,-100,10,0.0,41.48672871142567,35.47129497596953,30.210677859359656,10,4.142165825615908,6.154443638245292,4.634194680504545,3.618598801816779,10,0.8606500615464537,0.0,0.0,0.0,10,0.0,0.0,0.0,0.0,10,0.0,183.2710244836013,158.83612574814128,137.45434029761842,10,16.306594122602824,0.05555555555555555,0.048590654832073595,0.041666666666666664,10,0.005015468010221363,5.7915688,0.08733121,-5.7443194,4082,1.0680408,63,19.034935744883388,1,10505,7.437201334623824,159.5816788673401,9.893623786435311,-156.54847261309624,10505,52.71646656067736,1443126.0,238.38502883911133,200018.0,73.0,18687.670328617096,14601314.0,839.0543692028342,297986.0
2.7179953e-08,1.9290354e-09,300.64227,-0.044113934,1.9100097e-10,0.067564026,14.760025,125.3592,125.346245,12.437714,-21.176188,336.62833,-20.99969,1.0,0.08159681,-1.0,203,0.73070216,0.28401051973129404,0.27796031257642645,0.2718938370553444,10,0.0034878097406428436,27,20.3,18,10,2.9342801502242417,60.869487047195435,25.7837497651577,6.712536990642548,10,18.241513618667444,0.0,0.0,0.0,10,0.0,-55.39240172407137,-67.86753830875779,-96.93836928663052,10,11.685461006949174,0.0,0.0,0.0,10,0.0,-100,-100.0,-100,10,0.0,44.29073246089651,34.03465377896239,28.314141504681142,10,5.712608587419495,7.335083941287274,4.598418802418118,3.414757472233347,10,1.3108127191281067,0.0,0.0,0.0,10,0.0,0.0,0.0,0.0,10,0.0,206.18204029670883,155.01821506770065,137.45427044620905,10,22.40730781311432,0.05555555555555555,0.05016436292752082,0.037037037037037035,10,0.006286342849104535,5.810639,0.088547155,-6.0229926,4082,1.0668583,61,19.29387361312108,1,10365,7.4077888955950435,153.31008607149124,12.26668441529299,-102.37447781860828,10365,52.01433459029824,1453491.0,238.42393040657043,200018.0,74.0,18926.094259023666,14801332.0,838.9174679694314,302068.0
2.6992414e-08,1.9181603e-09,303.11893,-0.041581005,1.8724794e-10,0.065224275,14.7684965,125.40372,125.39093,12.416118,-20.69082,331.9712,-20.491655,1.0,0.0826476,-1.0,235,0.7180621,0.28014805259752756,0.27089718589032147,0.26385389336355963,10,0.004821610956384869,37,23.5,20,10,4.883646178829912,60.343716859817505,40.055000656843184,21.920697689056396,10,15.472833969398195,0.0,0.0,0.0,10,0.0,-64.12176121767071,-86.29769074849204,-196.85807081420026,10,37.41311669832145,0.0,0.0,0.0,10,0.0,-100,-100.0,-100,10,0.0,61.505542968674995,40.72601803784933,32.10681700952427,10,8.303605932541025,13.148738378140807,6.1722884278893035,4.037915301372356,10,2.5260480822749782,0.0,0.0,0.0,10,0.0,0.0,0.0,0.0,10,0.0,282.54750755367184,179.45438497632932,152.7262789775995,10,37.29400952285027,0.05,0.04393863343863343,0.02702702702702703,10,0.0067955817356160405,5.937481,0.08770413,-5.7147875,4082,1.0663415,74,19.32827892601893,1,10354,7.53716680965467,151.31541711091995,12.259201887108086,-140.40564626455307,10354,52.5337653902986,1463845.0,235.20518112182617,200018.0,75.0,19161.299440145493,15001350.0,850.3979336084407,306150.0
2.6821978e-08,1.9065833e-09,305.3384,-0.041183487,1.855313e-10,0.064999886,14.763193,125.43082,125.41808,12.363002,-20.264204,328.81674,-20.0444,1.0,0.079966865,-1.0,224,0.7208065,0.2794342643014691,0.27154036001996634,0.26199983541728133,10,0.005371490131468289,27,22.4,19,10,2.244994432064365,68.1698687672615,40.54645844697952,13.67662787437439,10,14.944450498499984,0.0,0.0,0.0,10,0.0,-66.54549982103563,-76.42652404231767,-96.05227775153264,10,10.134948087973347,0.0,0.0,0.0,10,0.0,-100,-100.0,-100,10,0.0,48.47077029797548,40.16702114245946,31.325817384155798,10,4.962031770040809,9.569163823500682,5.751761672609442,3.8053732282159607,10,1.57094353134716,0.0,0.0,0.0,10,0.0,0.0,0.0,0.0,10,0.0,206.18221161074666,171.05420138605245,145.09094057762857,10,17.14359551014828,0.05263157894736842,0.04508158021315916,0.037037037037037035,10,0.004405094782216986,5.851101,0.08509395,-6.1985717,4082,1.0659807,62,19.347422381274786,1,10339,7.527247206543104,147.6868816614151,12.748779673559117,-150.80745458602905,10339,52.98380742263118,1474184.0,231.18791794776917,200018.0,76.0,19392.48735809326,15201368.0,865.1749701089,310232.0
2.6660778e-08,1.8977417e-09,307.38678,-0.04139932,1.8179916e-10,0.065375485,14.765493,125.40894,125.396286,12.30054,-19.900848,327.41727,-19.643526,1.0,0.082316145,-1.0,240,0.7164304,0.28134113090710666,0.2690592393718235,0.2619351960139256,10,0.0056777810218523106,35,24.0,18,10,4.8373546489791295,73.69685490429401,44.10966808348894,10.72934877872467,10,19.725486774929713,0.0,0.0,0.0,10,0.0,-60.075145080003075,-86.94476416235071,-158.37303997363452,10,28.22573349845467,0.0,0.0,0.0,10,0.0,-100,-100.0,-100,10,0.0,53.7710238924126,41.27774950436054,29.552688633294622,10,6.929390726086094,11.018311159298262,6.503176817580948,3.7982997911361247,10,2.3368436108102886,0.0,0.0,0.0,10,0.0,0.0,0.0,0.0,10,0.0,267.2805637981439,183.27350501435973,137.45350194349754,10,36.94186322106159,0.05555555555555555,0.04317886778870761,0.02857142857142857,10,0.007683183639452104,6.4291315,0.083303384,-5.8576765,4082,1.065886,63,19.361817303044948,1,10345,7.6477849460118135,158.26764678955078,12.666958727814004,-155.91331088542938,10345,54.2501861268908,1484529.0,215.40779972076416,200018.0,77.0,19607.895157814026,15401386.0,928.5550488853507,314314.0
2.6510108e-08,1.886672e-09,309.34445,-0.038885143,1.8111666e-10,0.06301401,14.762249,125.43649,125.42376,12.295397,-19.461185,327.538,-19.250753,1.0,0.08236651,-1.0,246,0.7169241,0.27726872227751764,0.26999080650293755,0.26134609223367433,10,0.005527344879819442,36,24.6,19,10,5.4626001134990645,69.44330490659922,44.86176419360563,19.4598485827446,10,15.930999008833687,0.0,0.0,0.0,10,0.0,-61.112423315865975,-91.8281464310541,-176.2829089878265,10,38.51699616871567,0.0,0.0,0.0,10,0.0,-100,-100.0,-100,10,0.0,56.883978305338076,42.226114365406,31.20607062937786,10,8.398930460719187,11.926210925010835,6.608437363970137,4.275698569130045,10,2.6079334953253097,0.0,0.0,0.0,10,0.0,0.0,0.0,0.0,10,0.0,274.91682339746194,187.8553597312648,145.09050448754797,10,41.71654744471468,0.05263157894736842,0.04232777372789488,0.027777777777777776,10,0.007652729751846598,5.8664107,0.081895955,-6.2700973,4082,1.0662175,57,19.48818359375,1,10240,7.570196046671667,152.11624971032143,14.196973245138446,-166.74796611070633,10240,53.67947780741443,1494769.0,223.86769580841064,200018.0,78.0,19831.762853622437,15601404.0,893.4652196142601,318396.0
2.637023e-08,1.876682e-09,311.4382,-0.04000727,1.801961e-10,0.06429945,14.764959,125.44533,125.4327,12.269284,-19.02057,325.61862,-18.77701,1.0,0.07315213,-1.0,226,0.7207424,0.2770618926849483,0.26912995014864555,0.25673177357381494,10,0.007134161451104617,28,22.6,20,10,3.006659275674582,78.55665743350983,42.21081096529961,24.06125432252884,10,18.320065413283295,0.0,0.0,0.0,10,0.0,-61.93703853927459,-75.72895102190144,-96.48702723393794,10,12.141627246910891,0.0,0.0,0.0,10,0.0,-100,-100.0,-100,10,0.0,48.86871463980821,39.65978404188549,33.350407124949875,10,5.9113317828612555,7.6927469574093115,5.6981542760841934,4.278653182216288,10,1.2387398743492475,0.0,0.0,0.0,10,0.0,0.0,0.0,0.0,10,0.0,213.81765718062695,172.58182288186322,152.72652303201227,10,22.959936082230655,0.05,0.04497409997409997,0.03571428571428571,10,0.005474035747903898,5.747539,0.08194764,-6.4369903,4082,1.066246,67,19.829848379744327,1,10091,7.526038107496082,162.8169802427292,16.478261869976407,-180.85788583755493,10091,53.3089662091859,1504860.0,217.95152831077576,200018.0,79.0,20049.714381933212,15801422.0,917.7178134525194,322478.0
2.6243058e-08,1.8705526e-09,313.4739,-0.03867711,1.7640582e-10,0.063128084,14.766016,125.45608,125.44359,12.240203,-18.539978,324.83017,-18.29347,1.0,0.07414461,-1.0,228,0.72093403,0.27516694556708476,0.26816616344225574,0.26243055253191805,10,0.004375628830287525,27,22.8,21,10,1.6613247725836147,63.81563138961792,44.240057998895644,31.65937951207161,10,9.73807481753088,0.0,0.0,0.0,10,0.0,-70.01136030628602,-76.37840521181508,-97.58048061138821,10,7.568060430495656,0.0,0.0,0.0,10,0.0,-100,-100.0,-100,10,0.0,46.90544102357241,40.5911633408568,36.565579615831034,10,3.210553023962308,8.307642318866995,5.918162134976134,4.861653483632663,10,0.9023530007899871,0.0,0.0,0.0,10,0.0,0.0,0.0,0.0,10,0.0,206.18302608925097,174.10913608074466,160.36348542821398,10,12.68679542077449,0.047619047619047616,0.0440740217914131,0.037037037037037035,10,0.002953493852178533,5.836055,0.08037585,-5.634172,4082,1.0664409,61,19.86155526864634,1,10069,7.421258837528006,155.09455168247223,17.336077078052828,-108.78757424652576,10069,52.02835188447017,1514929.0,211.53393459320068,200018.0,80.0,20261.248316526413,16001440.0,945.5598714440456,326560.0
2.6130637e-08,1.865116e-09,315.49158,-0.036770232,1.7307379e-10,0.06137857,14.762816,125.4608,125.448494,12.24946,-18.017313,322.93362,-17.780994,1.0,0.07287562,-1.0,221,0.7242465,0.2828240612527806,0.27071034718186,0.25801033376142946,10,0.007510764596190442,26,22.1,19,10,2.4269322199023193,69.72166508436203,39.06196477413177,17.671639800071716,10,16.65670172361403,0.0,0.0,0.0,10,0.0,-57.80959598478288,-73.71812847848136,-89.50434497740085,10,9.28848024696233,0.0,0.0,0.0,10,0.0,-100,-100.0,-100,10,0.0,49.81894662238478,38.5027638559586,31.023575414293884,10,5.997458094317951,7.234538458255554,5.513584595024727,3.468622458173541,10,1.1536438946703014,0.0,0.0,0.0,10,0.0,0.0,0.0,0.0,10,0.0,198.54590250980056,168.76374481047597,145.09104336770395,10,18.53305798804492,0.05263157894736842,0.04578073528302361,0.038461538461538464,10,0.004865736532465555,6.2499704,0.078131385,-5.961992,4082,1.067061,61,19.860121115854263,1,10073,7.491031141837393,156.7291265130043,17.407079918640896,-180.51857042312622,10073,53.31551960924836,1525002.0,206.4400839805603,200018.0,81.0,20467.688400506973,16201458.0,968.8912935088466,330642.0
2.6025813e-08,1.8572381e-09,317.2839,-0.036752637,1.7277552e-10,0.061500784,14.752092,125.480865,125.46845,12.256558,-17.68735,321.6503,-17.476229,1.0,0.0707917,-1.0,220,0.72670174,0.2796747955164869,0.2710919614315929,0.26409376853244315,10,0.004072172022794653,24,22.0,18,10,1.7888543819998317,57.02170813083649,37.60446273982525,8.400764167308807,10,12.668528706068475,0.0,0.0,0.0,10,0.0,-63.21696805241549,-74.47642433889563,-86.37667172540102,10,6.876642791165133,0.0,0.0,0.0,10,0.0,-100,-100.0,-100,10,0.0,43.58876211366629,38.95063470095424,30.151636992081972,10,3.8620720554079755,6.149573360198048,5.130080902570502,4.011528221339488,10,0.6384572423324739,0.0,0.0,0.0,10,0.0,0.0,0.0,0.0,10,0.0,183.27442951851904,168.0001713116674,137.45456636434537,10,13.660397629538085,0.05555555555555555,0.045785181002572305,0.041666666666666664,10,0.0040828493329445985,5.90547,0.076872334,-5.543168,4082,1.066604,61,19.993204077553468,1,10006,7.592770488399714,158.5135886669159,17.910151310430553,-161.69090294837952,10006,53.16013831015971,1535008.0,196.15751886367798,200018.0,82.0,20663.84591937065,16401476.0,1019.6805157339134,334724.0
2.5930996e-08,1.8499783e-09,319.07703,-0.03458351,1.7263971e-10,0.05947153,14.751077,125.51497,125.502464,12.219423,-17.10292,320.75494,-16.828642,1.0,0.06989039,-1.0,227,0.72467965,0.27825568729135036,0.26970402600258375,0.2595062102120677,10,0.004590287899803323,25,22.7,21,10,1.1,51.612129747867584,40.52086752355099,30.402874529361725,10,5.844168566626282,0.0,0.0,0.0,10,0.0,-70.54263388905362,-78.17711663029161,-87.7882335161184,10,6.577848941690469,0.0,0.0,0.0,10,0.0,-100,-100.0,-100,10,0.0,43.86136568738283,39.97563707069328,36.88227357031917,10,2.1656622644646926,6.28156437369253,5.376858416594386,4.1217323568419495,10,0.623174567465831,0.0,0.0,0.0,10,0.0,0.0,0.0,0.0,10,0.0,190.910271515173,173.34548807294658,160.36340525830374,10,8.400093219956723,0.047619047619047616,0.044153867871259175,0.04,10,0.0020876935113506552,6.272644,0.07666678,-6.122985,4082,1.0664951,66,20.072052182639236,1,9965,7.576485836785352,153.34955942630768,19.255449172545767,-100.20691281557083,9965,53.00702558242874,1544973.0,195.52425599098206,200018.0,83.0,20859.370175361633,16601494.0,1022.9830513162786,338806.0
2.5848157e-08,1.8461332e-09,320.9794,-0.035146084,1.7002318e-10,0.06018248,14.745977,125.486275,125.474014,12.180117,-16.803389,319.79367,-16.525375,1.0,0.067261174,-1.0,209,0.7286024,0.2840807408569324,0.27128587696349665,0.26314564812854874,10,0.007134538610588931,23,20.9,17,10,1.9723082923316018,39.07339799404144,28.297091495990752,5.093152284622192,10,12.201452987906437,0.0,0.0,0.0,10,0.0,-55.097170874152326,-72.1548369644377,-84.0845368598911,10,8.233684747475191,0.0,0.0,0.0,10,0.0,-100,-100.0,-100,10,0.0,39.70174140348566,36.22612802325769,27.08386213199997,10,4.468780466948774,5.455951936479101,4.625955013480327,3.287845595070207,10,0.5699476148764101,0.0,0.0,0.0,10,0.0,0.0,0.0,0.0,10,0.0,175.6378852474808,159.59984466847678,129.81861122469851,10,15.061173507886929,0.058823529411764705,0.048321619751152664,0.043478260869565216,10,0.005039588251081328,5.881381,0.07604076,-5.791471,4082,1.0667669,68,20.117505030181086,1,9940,7.521630472327681,160.23117923736572,20.107737190935822,-155.09280252456665,9940,53.09177833476609,1554913.0,198.68709015846252,200018.0,84.0,21058.057265520096,16801512.0,1006.6985219848759,342888.0
2.5773177e-08,1.8419521e-09,322.66495,-0.034125436,1.6835563e-10,0.059293304,14.743038,125.503365,125.49106,12.2323885,-16.358946,321.2224,-16.10334,1.0,0.07040746,-1.0,226,0.7220023,0.28125696971114483,0.2686473570156641,0.2586236020899868,10,0.008334721351166028,27,22.6,17,10,3.4409301068170506,66.4585896730423,39.74524291157722,1.0908257961273193,10,23.69728498225195,0.0,0.0,0.0,10,0.0,-59.11603342492889,-78.4306112770831,-98.5906225452859,10,12.249366014893983,0.0,0.0,0.0,10,0.0,-100,-100.0,-100,10,0.0,50.41044401964659,40.19708794965227,26.917770311252287,10,7.906083717222858,7.186571410739111,5.396422641585405,3.4708733810878525,10,1.1883017908676974,0.0,0.0,0.0,10,0.0,0.0,0.0,0.0,10,0.0,206.18315557462952,172.58234367641938,129.81821713865176,10,26.276609460590098,0.058823529411764705,0.04540564044272484,0.037037037037037035,10,0.007643211232170598,5.993445,0.07550632,-5.762039,4082,1.0661563,69,20.511484823625924,1,9752,7.410878154613949,155.75101745128632,23.01918688358475,-114.08040225505829,9752,52.333191010722786,1564665.0,197.58194708824158,200018.0,85.0,21255.639212608337,17001530.0,1012.3293294132305,346970.0
2.5705665e-08,1.8381695e-09,324.30847,-0.03314299,1.6687246e-10,0.05843905,14.742422,125.481155,125.46889,12.154148,-15.992417,318.78873,-15.704506,1.0,0.06718797,-1.0,226,0.7230161,0.27873515416859146,0.26779881776228587,0.2628477554628937,10,0.004953222055468738,25,22.6,19,10,1.9595917942265422,53.546519339084625,40.6366770863533,16.518749952316284,10,12.127860328017169,0.0,0.0,0.0,10,0.0,-60.087371522219975,-77.35467566518392,-89.30698168633255,10,8.96903367395253,0.0,0.0,0.0,10,0.0,-100,-100.0,-100,10,0.0,45.75608393755549,39.92566739449609,30.28536733905372,10,4.988966751507409,7.644383891355434,5.484013464007602,3.7663462871639726,10,1.0799882794138531,0.0,0.0,0.0,10,0.0,0.0,0.0,0.0,10,0.0,190.9082975529165,172.5816710842892,145.09077890692566,10,14.963823492236653,0.05263157894736842,0.04461524859579779,0.04,10,0.00424839584874513,5.957806,0.07467216,-5.78966,4082,1.0655731,69,20.4681743757675,1,9772,7.42472872407894,158.895519644022,22.50729530639881,-146.57557821273804,9772,52.50938682338258,1574437.0,197.5544421672821,200018.0,86.0,21453.19365477562,17201548.0,1012.47027303305,351052.0
2.5644955e-08,1.8325409e-09,325.99484,-0.033594973,1.6776563e-10,0.05902257,14.7359295,125.46172,125.44951,12.055466,-15.485196,317.03467,-15.174065,1.0,0.06916602,-1.0,207,0.7307947,0.28296011249437836,0.27298053476860856,0.26273997464995336,10,0.0068129929087172685,24,20.7,18,10,2.147091055358389,48.644267141819,27.661026322841643,7.325651049613953,10,14.200688027488843,0.0,0.0,0.0,10,0.0,-59.26027661192422,-70.27556576453375,-82.90786009302138,10,7.957318173566864,0.0,0.0,0.0,10,0.0,-100,-100.0,-100,10,0.0,42.93859396987962,35.355070414736694,29.071453180352123,10,4.798736783537458,5.340418252191816,4.508625732552093,3.260565581456035,10,0.6583471368873323,0.0,0.0,0.0,10,0.0,0.0,0.0,0.0,10,0.0,183.273111005234,158.07289524525444,137.45514032392273,10,16.39573291954758,0.05555555555555555,0.0488425857132951,0.041666666666666664,10,0.005155110600974247,6.187805,0.07594135,-6.0568333,4082,1.0654002,57,20.60797444879456,1,9706,7.455419692535534,153.1822944879532,23.814137297020416,-103.13178217411041,9706,52.68178830258914,1584143.0,202.72487664222717,200018.0,87.0,21655.918531417847,17401566.0,986.6475358768903,355134.0
2.558698e-08,1.8283736e-09,327.5913,-0.031232473,1.6741115e-10,0.05678459,14.738115,125.41962,125.407265,12.035594,-15.045985,311.3437,-14.704315,1.0,0.07484985,-1.0,230,0.72057086,0.27761908005455627,0.2692588820304941,0.2602644535640233,10,0.005449354460892435,29,23.0,20,10,2.6076809620810595,79.72670912742615,43.410724645853044,26.79480504989624,10,16.875151266673797,0.0,0.0,0.0,10,0.0,-62.57670270422089,-77.52116392593321,-102.6912855888061,10,11.342555578622363,0.0,0.0,0.0,10,0.0,-100,-100.0,-100,10,0.0,53.34177042305576,39.87081173605408,31.729345166381638,10,6.539124940511364,8.084015643377366,5.4246005439599,3.315560088185624,10,1.3833275039109902,0.0,0.0,0.0,10,0.0,0.0,0.0,0.0,10,0.0,221.4559989302554,175.6364772075314,152.72857713029393,10,19.913222136510736,0.05,0.043987917379971354,0.034482758620689655,10,0.004523804451554542,5.8063173,0.07751495,-5.748987,4082,1.064707,60,20.8346875,1,9600,7.370525825476118,157.71297055482864,25.738642798937956,-102.12154561281204,9600,52.2364427493596,1593743.0,203.0902910232544,200018.0,88.0,21859.0088224411,17601584.0,984.8722900155645,359216.0
2.5535542e-08,1.8198528e-09,329.3187,-0.03185721,1.7191956e-10,0.05754407,14.724863,125.3588,125.34609,11.943251,-14.379149,309.46692,-14.0216875,1.0,0.07387361,-1.0,231,0.7182769,0.2731690675532109,0.2671906248236022,0.2604745465588631,10,0.003831653310765146,26,23.1,20,10,1.9209372712298547,68.1982906460762,45.91217474937439,26.846666932106018,10,13.17467665746988,0.0,0.0,0.0,10,0.0,-64.68176330423915,-76.95429400048901,-90.39357860896071,10,7.698665005642321,0.0,0.0,0.0,10,0.0,-100,-100.0,-100,10,0.0,48.98291853107191,40.87030903274965,34.77988065215919,10,4.95103001331711,7.40674267720602,5.596378453075053,4.02295787732021,10,1.0872117678613473,0.0,0.0,0.0,10,0.0,0.0,0.0,0.0,10,0.0,198.54586110878978,176.39978119622134,152.7255945883962,10,14.669444063252422,0.05,0.043590576090576094,0.038461538461538464,10,0.003625614147840887,5.6195607,0.07748975,-6.0979905,4082,1.0640231,73,20.830729166666668,1,9600,7.4920786980861305,163.35855197906494,25.571703302886203,-159.6355321407318,9600,53.13560665202059,1603343.0,196.38752555847168,200018.0,89.0,22055.396347999573,17801602.0,1018.4862782460559,363298.0
2.5495556e-08,1.8226112e-09,330.80212,-0.031107994,1.6604212e-10,0.05691056,14.71792,125.31093,125.2987,11.865107,-14.164681,308.1001,-13.781795,1.0,0.07311299,-1.0,215,0.7238063,0.28465782216891694,0.27038676593332617,0.26299892812874015,10,0.005713038221726187,24,21.5,18,10,1.746424919657298,51.7370787858963,34.74958244562149,14.530442833900452,10,12.266856851960268,0.0,0.0,0.0,10,0.0,-57.04315220055017,-71.1617873497536,-81.1177069895378,10,6.688290718621476,0.0,0.0,0.0,10,0.0,-100,-100.0,-100,10,0.0,43.199524527214834,37.05341091261637,30.377048432264232,10,3.50681838603668,5.447031442782411,4.67590758162172,3.7414131389005996,10,0.5681535550820461,0.0,0.0,0.0,10,0.0,0.0,0.0,0.0,10,0.0,183.2733958319136,164.18205028758416,137.45513452795532,10,13.336861798212324,0.05555555555555555,0.04683496455235585,0.041666666666666664,10,0.003996653818993092,5.9541693,0.07796291,-5.99965,4082,1.0632955,60,20.78446037187078,1,9627,7.502679520455731,161.99072062969208,25.863070642923663,-164.2265459895134,9627,53.33670358773055,1612970.0,259.51728224754333,200018.0,90.0,22314.913630247116,18001620.0,770.7309442660188,367380.0
2.5465223e-08,1.8194743e-09,332.36682,-0.02979943,1.668129e-10,0.055724043,14.708043,125.25436,125.242,11.92508,-13.618674,308.18246,-13.2500105,1.0,0.07639796,-1.0,221,0.7206499,0.27631989140499824,0.2694270471534261,0.2634757371641445,10,0.004336351653528695,25,22.1,20,10,1.8681541692269403,53.87768197059631,40.03797761797905,26.734025478363037,10,10.81814683128759,0.0,0.0,0.0,10,0.0,-61.105082993146276,-72.53793031335537,-88.35494729099157,10,9.037605079474654,0.0,0.0,0.0,10,0.0,-100,-100.0,-100,10,0.0,45.28352699639443,38.814746388682366,32.24141210166808,10,4.4378881578481755,6.052319772421692,4.997865532811662,3.9011423821883207,10,0.8519332464365876,0.0,0.0,0.0,10,0.0,0.0,0.0,0.0,10,0.0,190.90791556179246,168.76329543693132,152.72624416515353,10,14.265639809491349,0.05,0.04557444005270093,0.04,10,0.0038569469793243555,5.6766996,0.07954042,-6.0281982,4082,1.0621188,57,20.72020725388601,1,9650,7.598517441880277,166.5454528927803,26.261209345410833,-135.452787399292,9650,54.18264572569261,1622620.0,240.27678179740906,200018.0,91.0,22555.190412044525,18201638.0,832.4483060899596,371462.0
2.5438247e-08,1.8174705e-09,333.92056,-0.029602546,1.6671277e-10,0.05564834,14.700197,125.21654,125.20426,11.923016,-13.124156,311.78717,-12.788504,1.0,0.0741964,-1.0,222,0.7217141,0.27879167594992754,0.26944852470605135,0.26353732700858196,10,0.00417967028437281,24,22.2,20,10,1.32664991614216,49.48598563671112,41.17403181195259,28.228633880615234,10,8.076634490499712,0.0,0.0,0.0,10,0.0,-63.11636088045746,-73.25875827711079,-83.50354302865475,10,5.942553596007463,0.0,0.0,0.0,10,0.0,-100,-100.0,-100,10,0.0,44.0862421078829,39.511824690530204,34.143455107251086,10,3.389290638832093,6.065198532435832,5.394534187303749,4.781892633930346,10,0.3961854524966457,0.0,0.0,0.0,10,0.0,0.0,0.0,0.0,10,0.0,183.27161200984705,169.5264298303984,152.7266553897863,10,10.13057906425077,0.05,0.045213156408808575,0.041666666666666664,10,0.0028160473446218626,5.778163,0.07961363,-5.680357,4082,1.06207,60,20.849473574481394,1,9593,7.5893828729700505,155.6944603919983,27.69680466805245,-135.86511945724487,9593,54.25028540336425,1632213.0,237.546448469162,200018.0,92.0,22792.736860513687,18401656.0,842.0163773821528,375544.0
2.5414758e-08,1.8160222e-09,335.27734,-0.028081393,1.6632881e-10,0.05423303,14.700037,125.21757,125.20515,11.996008,-12.690378,312.4481,-12.38502,1.0,0.078282915,-1.0,244,0.7153841,0.27462048118933036,0.2677031825910164,0.256760157396652,10,0.004927956436483155,29,24.4,22,10,2.33238075793812,70.27812874317169,54.3982114315033,43.3077849149704,10,10.844920724753882,0.0,0.0,0.0,10,0.0,-66.56890835104917,-81.81850756193236,-107.19275549991463,10,12.22732630445389,0.0,0.0,0.0,10,0.0,-100,-100.0,-100,10,0.0,50.8512799165098,43.60135223670143,39.29588374140227,10,3.8575222237433913,8.597118545511954,6.288047564345425,5.305339383296662,10,1.0923648866927231,0.0,0.0,0.0,10,0.0,0.0,0.0,0.0,10,0.0,221.45543967427065,186.32731891778036,167.9997044777047,10,17.811133896590754,0.045454545454545456,0.04133789670821155,0.034482758620689655,10,0.00371477997191383,5.800896,0.077804916,-6.655127,4082,1.0622904,59,20.726764065899907,1,9651,7.725301922781571,165.25982283055782,26.616359248768564,-150.73001551628113,9651,55.32943296226683,1641864.0,237.97404074668884,200018.0,93.0,23030.710901260376,18601674.0,840.5034405114334,379626.0
2.5394316e-08,1.813328e-09,336.7115,-0.02960396,1.6742893e-10,0.05586746,14.692656,125.17022,125.15773,12.015628,-12.351727,315.57983,-12.076462,1.0,0.07756128,-1.0,226,0.71806717,0.28012082962139784,0.2694451456372085,0.25853437879222296,10,0.006666633842440924,27,22.6,19,10,2.2449944320643644,71.16592735052109,44.665283316373824,20.40462625026703,10,14.57800701589691,0.0,0.0,0.0,10,0.0,-61.80736242502661,-73.73875854536769,-94.73965393548835,10,9.364094193832699,0.0,0.0,0.0,10,0.0,-100,-100.0,-100,10,0.0,51.76008369856253,39.9490707922604,33.000753622732184,10,5.127023381133196,7.964007369850953,5.8736735624018275,4.120655448603885,10,1.0560146793031824,0.0,0.0,0.0,10,0.0,0.0,0.0,0.0,10,0.0,206.18148705377334,172.58129707994266,145.09057803617517,10,17.143641210043448,0.05263157894736842,0.04468199429183411,0.037037037037037035,10,0.004400609329624872,5.7247105,0.07905694,-5.8907375,4082,1.0616649,52,20.911657083115525,1,9565,7.597069002013347,174.63950210809708,27.927495649418212,-159.73954963684082,9565,54.493104754373434,1651429.0,239.68665409088135,200018.0,94.0,23270.397555351257,18801692.0,834.4978603779905,383708.0
2.5376876e-08,1.8107177e-09,338.06076,-0.027284518,1.6867902e-10,0.05365326,14.691465,125.150635,125.13809,12.021573,-12.094788,314.8659,-11.861441,1.0,0.07382396,-1.0,220,0.72179526,0.27461500477620604,0.26970968512014604,0.26563345288215395,10,0.0030743258756949724,23,22.0,20,10,1.0,49.5612006187439,39.917770862579346,25.97957330942154,10,7.836939126345765,0.0,0.0,0.0,10,0.0,-65.31075024107045,-72.92834094562684,-77.56257022167148,10,3.402553849944696,0.0,0.0,0.0,10,0.0,-100,-100.0,-100,10,0.0,42.59523600160503,39.411639775068906,34.23668882651379,10,2.5735084749817583,6.170409108074073,5.435000288421861,4.326647874003052,10,0.5608031078769452,0.0,0.0,0.0,10,0.0,0.0,0.0,0.0,10,0.0,175.63616035016634,167.9994711030276,152.7269906196932,10,7.636443041531352,0.05,0.04555147750799925,0.043478260869565216,10,0.0021344821638635647,5.70998,0.08031633,-5.788902,4082,1.0614533,55,21.064105263157895,1,9500,7.658445354775182,160.05732575803995,28.762889174605352,-155.02804040908813,9500,55.360634660472726,1660929.0,241.0651149749756,200018.0,95.0,23511.462670326233,19001710.0,829.7260265997567,387790.0
2.536075e-08,1.8084696e-09,339.43024,-0.029081432,1.6966925e-10,0.055556986,14.692062,125.14637,125.13367,11.958923,-11.533659,312.3388,-11.29852,1.0,0.068899326,-1.0,231,0.71688175,0.2722103310824792,0.26451530691077657,0.2552845131683669,10,0.005602451126087772,26,23.1,20,10,1.972308292331602,61.638929426670074,44.98348058462143,26.245609879493713,10,10.913179000475536,0.0,0.0,0.0,10,0.0,-62.7018445898838,-77.20718283597856,-91.96481997997194,10,9.516523901500305,0.0,0.0,0.0,10,0.0,-100,-100.0,-100,10,0.0,47.545060706081976,40.35050463465821,32.74202115598205,10,4.68344787205153,6.506775436374294,5.440480053645365,3.479323511298156,10,0.8631377443498871,0.0,0.0,0.0,10,0.0,0.0,0.0,0.0,10,0.0,198.54541221040813,176.39967980557293,152.72611074385284,10,15.061243769726882,0.05,0.04360506884419928,0.038461538461538464,10,0.003700684740955876,6.1860523,0.08012313,-5.7617416,4082,1.0611078,56,21.182001271994913,1,9434,7.480711567779642,165.3408859372139,29.689624696099525,-145.07529640197754,9434,53.70332710489543,1670363.0,247.93829441070557,200018.0,96.0,23759.40096473694,19201728.0,806.7249170822865,391872.0
2.5344994e-08,1.8083083e-09,340.88553,-0.027203506,1.6860113e-10,0.05379258,14.689925,125.13955,125.127075,11.888653,-11.343122,309.40472,-11.095342,1.0,0.069038145,-1.0,247,0.7106733,0.2674514920568348,0.2607861146056132,0.2542645797251555,10,0.003712872888705778,29,24.7,21,10,1.9000000000000001,79.45787385106087,53.05894021689892,32.83031475543976,10,11.558958355240692,0.0,0.0,0.0,10,0.0,-68.0376952944226,-85.01359523839272,-105.98757189752624,10,9.046670796933531,0.0,0.0,0.0,10,0.0,-100,-100.0,-100,10,0.0,55.11477800959614,42.864313425736526,35.17789885203369,10,4.857817004775698,8.875408125703528,6.590393840506932,5.326886975987218,10,1.0183738943198386,0.0,0.0,0.0,10,0.0,0.0,0.0,0.0,10,0.0,221.45525849206987,188.61782822383208,160.36322336151355,10,14.509436524874875,0.047619047619047616,0.040724673377596915,0.034482758620689655,10,0.003132321830071722,5.781951,0.078762785,-5.4827614,4082,1.0611002,62,21.361976942783944,1,9368,7.622060661689036,161.02793616056442,30.916629334568547,-160.87075233459473,9368,55.01556270741255,1679731.0,240.6821150779724,200018.0,97.0,24000.08307981491,19401746.0,831.0463780626213,395954.0
2.5329612e-08,1.8002332e-09,342.16727,-0.028074184,1.7547684e-10,0.054763228,14.6980715,125.13212,125.118935,11.85874,-11.038202,306.2942,-10.754409,1.0,0.071466975,-1.0,238,0.71425027,0.26657198620530975,0.2636914047125972,0.26069743419080227,10,0.0022493763232422164,27,23.8,20,10,2.039607805437114,72.0628952383995,53.81077771782875,30.54555195569992,10,13.509366666532998,0.0,0.0,0.0,10,0.0,-60.20885659369354,-77.22731353234221,-90.15478295165964,10,8.22436512723218,0.0,0.0,0.0,10,0.0,-100,-100.0,-100,10,0.0,47.62974029103482,42.21466192291638,33.76134617608841,10,4.3304912226123875,9.397885537980725,7.078028655790746,4.265032196846101,10,1.4971590731642572,0.0,0.0,0.0,10,0.0,0.0,0.0,0.0,10,0.0,206.18259362123138,181.74539946606993,152.7280287331156,10,15.57544525351344,0.05,0.042340747819008685,0.037037037037037035,10,0.003796801936283275,5.914627,0.078356385,-6.0932016,4082,1.0606973,57,21.488666881512515,1,9309,7.403259817110811,159.06060096621513,32.71130745844611,-100.27878302335739,9309,52.749155071937004,1689040.0,242.17741584777832,200018.0,98.0,24242.26049566269,19601764.0,825.9151634755332,400036.0
2.5314694e-08,1.7940749e-09,343.66486,-0.028469374,1.80471e-10,0.05527524,14.6910715,125.1337,125.120224,11.884789,-10.48475,304.99866,-10.206183,1.0,0.0677954,-1.0,235,0.7176357,0.2684091676737841,0.26494978645724465,0.25942343150306774,10,0.0026284149037624706,27,23.5,22,10,1.4317821063276353,69.87313312292099,50.99948501586914,39.05804896354675,10,8.48384821652801,0.0,0.0,0.0,10,0.0,-65.90253636897015,-75.7485482923211,-91.80921346490199,10,6.860923249634506,0.0,0.0,0.0,10,0.0,-100,-100.0,-100,10,0.0,48.386826467068175,41.35642691322739,37.1843421793192,10,3.499757777462168,7.1129536206165,5.937367451199008,4.848086501476312,10,0.6290592838163691,0.0,0.0,0.0,10,0.0,0.0,0.0,0.0,10,0.0,206.1825630379341,179.45423872714585,167.9997412383518,10,10.933781966389674,0.045454545454545456,0.04270040989606207,0.037037037037037035,10,0.0024213718600272103,5.8704443,0.07654233,-5.842355,4082,1.0600376,67,21.34752,1,9375,7.8115386778960945,172.8718276321888,31.809164270866987,-173.46024560928345,9375,56.30280632559837,1698415.0,243.02941274642944,200018.0,99.0,24485.28990840912,19801782.0,823.0197231669797,404118.0
2.5299805e-08,1.8028444e-09,344.8508,-0.02349842,1.705404e-10,0.050396774,14.684107,125.161095,125.14832,11.887344,-10.13245,306.4339,-9.852339,1.0,0.06588934,-1.0,226,0.71872693,0.27385723838510023,0.2644738634246589,0.2590766234947571,10,0.004074199656887306,26,22.6,19,10,1.8547236990991405,72.02804279327393,44.4254975438118,19.49436128139496,10,14.660705045857013,0.0,0.0,0.0,10,0.0,-59.351974571115015,-71.99121988774621,-81.83743222047534,10,6.486968212888689,0.0,0.0,0.0,10,0.0,-100,-100.0,-100,10,0.0,46.54932206867137,38.270682356141435,30.40639684400364,10,4.309601661114777,8.77033781072279,5.564157795438009,3.348987089938042,10,1.472534158795303,0.0,0.0,0.0,10,0.0,0.0,0.0,0.0,10,0.0,198.54581544609326,172.5818769583419,145.09094766153774,10,14.163342078705504,0.05263157894736842,0.04455538740435766,0.038461538461538464,10,0.0037697532746223178,5.885807,0.07579559,-6.050957,4082,1.0600972,56,21.55941341384516,1,9274,7.447912456375681,166.64496195316315,34.76872355845209,-99.40998077392578,9274,53.650091231205565,1707689.0,240.7752606868744,200018.0,100.0,24726.065169095993,20001800.0,830.7248819060411,408200.0
2.528546e-08,1.7942432e-09,346.15146,-0.026079785,1.7802286e-10,0.053079594,14.684405,125.182755,125.1694,11.897534,-9.632435,306.70514,-9.3765,1.0,0.06791917,-1.0,217,0.7240565,0.2806543890203276,0.27008275270329907,0.26160332217088245,10,0.005681428193562992,24,21.7,18,10,1.5524174696260022,63.972753047943115,41.11917016506195,14.54310518503189,10,12.4332819596089,0.0,0.0,0.0,10,0.0,-57.141215779290356,-65.90375414927414,-70.88751070180619,10,4.477173480612079,0.0,0.0,0.0,10,0.0,-100,-100.0,-100,10,0.0,41.92744038571138,36.11556294932113,30.01291193729439,10,2.997077484805436,6.202846308712347,5.198470280253037,3.6936678475148232,10,0.7952379148982615,0.0,0.0,0.0,10,0.0,0.0,0.0,0.0,10,0.0,183.2720620556333,165.70889120017878,137.45515761303344,10,11.854458688802998,0.05555555555555555,0.04633995231821319,0.041666666666666664,10,0.003611171389066648,6.2581096,0.07550818,-5.944874,4082,1.0598568,56,21.434097728246893,1,9332,7.546671970714617,161.14230728149414,34.19977680110251,-142.21466946601868,9332,54.844673658941296,1717021.0,218.25281167030334,200018.0,101.0,24944.317980766296,20201818.0,916.4509655992465,412282.0
2.5271408e-08,1.8008501e-09,347.42715,-0.024727928,1.7031988e-10,0.05182725,14.684236,125.22229,125.20957,11.913707,-9.226126,308.16452,-8.953686,1.0,0.06675213,-1.0,219,0.7227445,0.2771335125721183,0.26891560892433064,0.262375885650241,10,0.004770362532818877,24,21.9,19,10,1.57797338380595,56.524967670440674,40.85506731271744,17.026637196540833,10,11.349064803893132,0.0,0.0,0.0,10,0.0,-61.27821337847237,-68.99445383396878,-80.03983187145442,10,5.98492399362141,0.0,0.0,0.0,10,0.0,-100,-100.0,-100,10,0.0,41.89079219522965,37.221091220709646,30.920399128977287,10,2.9906906609975756,6.579722957367115,5.392254859961845,3.8023340790449374,10,0.7727493328346207,0.0,0.0,0.0,10,0.0,0.0,0.0,0.0,10,0.0,183.2732569411558,167.23617627034656,145.09139716050115,10,12.049845978029856,0.05263157894736842,0.04590686201670184,0.041666666666666664,10,0.003405916267954053,5.913778,0.07784664,-5.9775147,4082,1.0594689,60,21.504677922357242,1,9299,7.784580472971116,170.5107491016388,34.00969647703963,-161.0378212928772,9299,56.35659350429349,1726320.0,217.97381615638733,200018.0,102.0,25162.291796922684,20401836.0,917.6239767096395,416364.0
2.5257824e-08,1.7988145e-09,348.5899,-0.023872197,1.7129578e-10,0.051062204,14.680611,125.23459,125.221756,11.880215,-8.653623,310.61057,-8.40346,1.0,0.06537986,-1.0,216,0.7233308,0.27334307154539994,0.26872808865836995,0.2626931643176408,10,0.003407221126007125,25,21.6,20,10,1.5620499351813308,61.26758694648743,37.965115416049954,24.589894950389862,10,11.189663988632907,0.0,0.0,0.0,10,0.0,-61.13383456249505,-68.93072424852713,-79.82764952288068,10,5.324733431256425,0.0,0.0,0.0,10,0.0,-100,-100.0,-100,10,0.0,42.10078131500379,36.50484562757507,33.35856952142827,10,2.484891313562919,8.085345521139509,5.446000819554899,4.314824218527626,10,1.1421584836208574,0.0,0.0,0.0,10,0.0,0.0,0.0,0.0,10,0.0,190.90910905637898,164.9449936405395,152.72623976009595,10,11.928511927584276,0.05,0.046526821005081875,0.04,10,0.0031953778964211033,6.0478454,0.07904757,-5.7098475,4082,1.0589652,66,21.94776119402985,1,9112,7.510375719716848,168.65312261879444,37.93608617608433,-115.05912184715271,9112,53.99423314859047,1735432.0,212.79258131980896,200018.0,103.0,25375.084378242493,20601854.0,939.9669798609667,420446.0
2.5249104e-08,1.7982865e-09,349.7372,-0.022928245,1.711437e-10,0.050207745,14.686306,125.23793,125.225174,11.888546,-8.158818,309.58603,-7.9104013,1.0,0.0653906,-1.0,222,0.72061837,0.27589021307978934,0.26770208987890487,0.25935602838734134,10,0.0050423699725200164,25,22.2,19,10,1.8330302779823362,59.26093053817749,43.28054910600186,23.417431890964508,10,12.878113214553728,0.0,0.0,0.0,10,0.0,-58.14176827361686,-69.42832360843161,-80.1460397668634,10,6.100830354113859,0.0,0.0,0.0,10,0.0,-100,-100.0,-100,10,0.0,42.46395956392476,37.60551958295589,32.157942005478446,10,3.789686666599278,6.794529821934298,5.575937319597041,4.309266415266345,10,0.7716908895778095,0.0,0.0,0.0,10,0.0,0.0,0.0,0.0,10,0.0,190.90912478655116,169.52741456137218,145.09198787192096,10,13.99717006152225,0.05263157894736842,0.04536140747124729,0.04,10,0.003843356322844972,5.446129,0.077639006,-5.926532,4082,1.0592754,65,21.891806148123838,1,9141,7.568207128376178,174.53953230381012,37.7739578387639,-135.21467781066895,9141,54.797659842790566,1744573.0,209.7834987640381,200018.0,104.0,25584.86787700653,20801872.0,953.4496334479472,424528.0
